# nm  Flux(W/m2/m) for star HR 114 from file: table5.dat
 320.0 0.0001783
 322.5 0.0001788
 325.0 0.0001782
 327.5 0.0001803
 330.0 0.0001833
 332.5 0.0001879
 335.0 0.0001874
 337.5 0.0001890
 340.0 0.0001918
 342.5 0.0001979
 345.0 0.0002008
 347.5 0.0002008
 350.0 0.0001988
 352.5 0.0002014
 355.0 0.0002046
 357.5 0.0002053
 360.0 0.0002012
 362.5 0.0001981
 365.0 0.0002014
 367.5 0.0002084
 370.0 0.0002198
 372.5 0.0002349
 375.0 0.0002566
 377.5 0.0002811
 380.0 0.0003048
 382.5 0.0003293
 385.0 0.0003503
 387.5 0.0003695
 390.0 0.0003767
 392.5 0.0003757
 395.0 0.0003688
 397.5 0.0003736
 400.0 0.0004003
 402.5 0.0004369
 405.0 0.0004533
 407.5 0.0004373
 410.0 0.0004081
 412.5 0.0003985
 415.0 0.0004119
 417.5 0.0004309
 420.0 0.0004430
 422.5 0.0004487
 425.0 0.0004504
 427.5 0.0004401
 430.0 0.0004130
 432.5 0.0003837
 435.0 0.0003698
 437.5 0.0003830
 440.0 0.0004033
 442.5 0.0004161
 445.0 0.0004165
 447.5 0.0004142
 450.0 0.0004130
 452.5 0.0004104
 455.0 0.0004059
 457.5 0.0004033
 460.0 0.0004036
 462.5 0.0004059
 465.0 0.0004063
 467.5 0.0004051
 470.0 0.0004036
 472.5 0.0003999
 475.0 0.0003934
 477.5 0.0003855
 480.0 0.0003760
 482.5 0.0003574
 485.0 0.0003342
 487.5 0.0003168
 490.0 0.0003218
 492.5 0.0003388
 495.0 0.0003532
 497.5 0.0003558
 500.0 0.0003509
 502.5 0.0003467
 505.0 0.0003445
 507.5 0.0003439
 510.0 0.0003305
 512.5 0.0003212
 515.0 0.0003311
 517.5 0.0003367
 520.0 0.0003212
 522.5 0.0003177
 525.0 0.0003194
 527.5 0.0003224
 530.0 0.0003242
 532.5 0.0003148
 535.0 0.0003107
 537.5 0.0003136
 540.0 0.0003107
 542.5 0.0003065
 545.0 0.0003042
 547.5 0.0003017
 550.0 0.0003048
 552.5 0.0003017
 555.0 0.0002970
 557.5 0.0002951
 560.0 0.0002938
 562.5 0.0002924
 565.0 0.0002889
 567.5 0.0002855
 570.0 0.0002808
 572.5 0.0002795
 575.0 0.0002775
 577.5 0.0002752
 580.0 0.0002726
 582.5 0.0002744
 585.0 0.0002716
 587.5 0.0002674
 590.0 0.0002652
 592.5 0.0002669
 595.0 0.0002640
 597.5 0.0002611
 600.0 0.0002568
 602.5 0.0002597
 605.0 0.0002580
 607.5 0.0002580
 610.0 0.0002503
 612.5 0.0002475
 615.0 0.0002452
 617.5 0.0002410
 620.0 0.0002368
 622.5 0.0002368
 625.0 0.0002331
 627.5 0.0002299
 630.0 0.0002304
 632.5 0.0002306
 635.0 0.0002270
 637.5 0.0002264
 640.0 0.0002243
 642.5 0.0002218
 645.0 0.0002206
 647.5 0.0002192
 650.0 0.0002082
 652.5 0.0002003
 655.0 0.0001912
 657.5 0.0001876
 660.0 0.0001934
 662.5 0.0002025
 665.0 0.0002061
 667.5 0.0002049
 670.0 0.0002057
 672.5 0.0002046
 675.0 0.0002017
 677.5 0.0001990
 680.0 0.0001988
 682.5 0.0001955
 685.0 0.0001927
 687.5 0.0001912
 690.0 0.0001920
 692.5 0.0001902
 695.0 0.0001859
 697.5 0.0001857
 700.0 0.0001830
 702.5 0.0001801
 705.0 0.0001796
 707.5 0.0001772
 710.0 0.0001760
 712.5 0.0001744
 715.0 0.0001728
 717.5 0.0001681
 720.0 0.0001683
 722.5 0.0001680
 725.0 0.0001657
 727.5 0.0001650
 730.0 0.0001646
 732.5 0.0001637
 735.0 0.0001617
 737.5 0.0001581
 740.0 0.0001533
 742.5 0.0001539
 745.0 0.0001529
 747.5 0.0001518
 750.0 0.0001536
 752.5 0.0001509
 755.0 0.0001462
 757.5 0.0001449
 760.0 0.0001453
 762.5 0.0001467
 765.0 0.0001453
 767.5 0.0001431
 770.0 0.0001452
 772.5 0.0001444
 775.0 0.0001411
 777.5 0.0001396
 780.0 0.0001401
 782.5 0.0001388
 785.0 0.0001364
 787.5 0.0001342
 790.0 0.0001343
 792.5 0.0001330
 795.0 0.0001301
 797.5 0.0001309
 800.0 0.0001318
 802.5 0.0001306
 805.0 0.0001286
 807.5 0.0001269
 810.0 0.0001267
 812.5 0.0001237
 815.0 0.0001221
 817.5 0.0001202
 820.0 0.0001201
 822.5 0.0001199
 825.0 0.0001223
 827.5 0.0001215
 830.0 0.0001211
 832.5 0.0001222
 835.0 0.0001195
 837.5 0.0001186
 840.0 0.0001182
 842.5 0.0001176
 845.0 0.0001175
 847.5 0.0001158
 850.0 0.0001155
 852.5 0.0001140
 855.0 0.0001130
 857.5 0.0001126
 860.0 0.0001139
 862.5 0.0001125
 865.0 0.0001123
 867.5 0.0001106
 870.0 0.0001108
 872.5 0.0001102
 875.0 0.0001111
 877.5 0.0001106
 880.0 0.0001116
 882.5 0.0001078
 885.0 0.0001071
 887.5 0.0001047
 890.0 0.0001048
 892.5 0.0001062
 895.0 0.0001036
 897.5 0.0001009
 900.0 0.0000968
 902.5 0.0000944
 905.0 0.0000952
 907.5 0.0000966
 910.0 0.0000962
 912.5 0.0000968
 915.0 0.0000968
 917.5 0.0000949
 920.0 0.0000899
 922.5 0.0000899
 925.0 0.0000908
 927.5 0.0000976
 930.0 0.0000969
 932.5 0.0000951
 935.0 0.0000973
 937.5 0.0001015
 940.0 0.0001000
 942.5 0.0000955
 945.0 0.0000957
 947.5 0.0000942
 950.0 0.0000908
 952.5 0.0000886
 955.0 0.0000876
 957.5 0.0000867
 960.0 0.0000885
 962.5 0.0000882
 965.0 0.0000844
 967.5 0.0000860
 970.0 0.0000869
 972.5 0.0000852
 975.0 0.0000863
 977.5 0.0000857
 980.0 0.0000873
 982.5 0.0000874
 985.0 0.0000878
 987.5 0.0000859
 990.0 0.0000839
 992.5 0.0000859
 995.0 0.0000866
 997.5 0.0000848
1000.0 0.0000802
1002.5 0.0000801
1005.0 0.0000813
1007.5 0.0000798
1010.0 0.0000814
1012.5 0.0000812
1015.0 0.0000839
1017.5 0.0000839
1020.0 0.0000824
1022.5 0.0000805
1025.0 0.0000804
1027.5 0.0000811
1030.0 0.0000815
1032.5 0.0000813
1035.0 0.0000803
1037.5 0.0000769
1040.0 0.0000776
1042.5 0.0000800
1045.0 0.0000808
1047.5 0.0000768
1050.0 0.0000770
1052.5 0.0000768
1055.0 0.0000750
1057.5 0.0000745
1060.0 0.0000747
1062.5 0.0000729
1065.0 0.0000724
1067.5 0.0000715
1070.0 0.0000713
1072.5 0.0000718
1075.0 0.0000742
1077.5 0.0000738
1080.0 0.0000718

# nm  Flux(W/m2/m) for star HR 114 from file: table6.dat
 320.0 0.0017730
 322.5 0.0019000
 325.0 0.0017170
 327.5 0.0017350
 330.0 0.0018380
 332.5 0.0020170
 335.0 0.0017720
 337.5 0.0018980
 340.0 0.0018860
 342.5 0.0019820
 345.0 0.0020610
 347.5 0.0020640
 350.0 0.0019070
 352.5 0.0019660
 355.0 0.0020570
 357.5 0.0022280
 360.0 0.0019360
 362.5 0.0018330
 365.0 0.0021130
 367.5 0.0019900
 370.0 0.0021960
 372.5 0.0023270
 375.0 0.0024480
 377.5 0.0028790
 380.0 0.0031390
 382.5 0.0031710
 385.0 0.0034710
 387.5 0.0040250
 390.0 0.0035650
 392.5 0.0039300
 395.0 0.0038160
 397.5 0.0032300
 400.0 0.0038690
 402.5 0.0046470
 405.0 0.0048530
 407.5 0.0047210
 410.0 0.0036440
 412.5 0.0035580
 415.0 0.0043850
 417.5 0.0044220
 420.0 0.0043250
 422.5 0.0045330
 425.0 0.0046050
 427.5 0.0044960
 430.0 0.0043330
 432.5 0.0037220
 435.0 0.0031360
 437.5 0.0039300
 440.0 0.0042380
 442.5 0.0042150
 445.0 0.0041610
 447.5 0.0040740
 450.0 0.0041730
 452.5 0.0041570
 455.0 0.0040330
 457.5 0.0039770
 460.0 0.0039850
 462.5 0.0041690
 465.0 0.0040590
 467.5 0.0039660
 470.0 0.0041230
 472.5 0.0040290
 475.0 0.0039160
 477.5 0.0038580
 480.0 0.0037570
 482.5 0.0037500
 485.0 0.0034360
 487.5 0.0026720
 490.0 0.0031620
 492.5 0.0035580
 495.0 0.0035780
 497.5 0.0036510
 500.0 0.0034640
 502.5 0.0034360
 505.0 0.0034320
 507.5 0.0034550
 510.0 0.0034710
 512.5 0.0033390
 515.0 0.0033240
 517.5 0.0033270
 520.0 0.0032570
 522.5 0.0032630
 525.0 0.0032540
 527.5 0.0031940
 530.0 0.0032210
 532.5 0.0031800
 535.0 0.0031450
 537.5 0.0032060
 540.0 0.0030120
 542.5 0.0030760
 545.0 0.0030420
 547.5 0.0030700
 550.0 0.0030450
 552.5 0.0029650
 555.0 0.0029650
 557.5 0.0030090
 560.0 0.0029380
 562.5 0.0028920
 565.0 0.0028600
 567.5 0.0028050
 570.0 0.0028470
 572.5 0.0028160
 575.0 0.0027570
 577.5 0.0027770
 580.0 0.0026920
 582.5 0.0026840
 585.0 0.0027950
 587.5 0.0027160
 590.0 0.0026380
 592.5 0.0026920
 595.0 0.0026840
 597.5 0.0026770
 600.0 0.0026330
 602.5 0.0025750
 605.0 0.0026230
 607.5 0.0026010
 610.0 0.0025680
 612.5 0.0024730
 615.0 0.0024320
 617.5 0.0023620
 620.0 0.0024170
 622.5 0.0024010
 625.0 0.0023330
 627.5 0.0023570
 630.0 0.0023570
 632.5 0.0022910
 635.0 0.0023080
 637.5 0.0023330
 640.0 0.0022720
 642.5 0.0022800
 645.0 0.0022300
 647.5 0.0021980
 650.0 0.0021220
 652.5 0.0020470
 655.0 0.0021030
 657.5 0.0017190
 660.0 0.0018980
 662.5 0.0022080
 665.0 0.0021640
 667.5 0.0020740
 670.0 0.0021320
 672.5 0.0020630
 675.0 0.0020360
 677.5 0.0019970
 680.0 0.0020290
 682.5 0.0020680
 685.0 0.0019410
 687.5 0.0019040
 690.0 0.0019610
 692.5 0.0020300
 695.0 0.0018850
 697.5 0.0019110
 700.0 0.0018810
 702.5 0.0018200
 705.0 0.0018260
 707.5 0.0018050
 710.0 0.0017880
 712.5 0.0017900
 715.0 0.0017640
 717.5 0.0017170
 720.0 0.0017720
 722.5 0.0016530
 725.0 0.0017600
 727.5 0.0017000
 730.0 0.0016490
 732.5 0.0017770
 735.0 0.0016370

