# nm  Flux(W/m2/m) for star HR 1666 from file: table5.dat
 320.0 0.0017430
 322.5 0.0017490
 325.0 0.0017640
 327.5 0.0017850
 330.0 0.0018050
 332.5 0.0018180
 335.0 0.0018260
 337.5 0.0018380
 340.0 0.0018540
 342.5 0.0018660
 345.0 0.0018720
 347.5 0.0018790
 350.0 0.0018910
 352.5 0.0018970
 355.0 0.0018900
 357.5 0.0018710
 360.0 0.0018600
 362.5 0.0018710
 365.0 0.0019040
 367.5 0.0019700
 370.0 0.0020970
 372.5 0.0023100
 375.0 0.0026010
 377.5 0.0029240
 380.0 0.0032570
 382.5 0.0035350
 385.0 0.0037880
 387.5 0.0039740
 390.0 0.0040890
 392.5 0.0041000
 395.0 0.0041080
 397.5 0.0042700
 400.0 0.0045960
 402.5 0.0048170
 405.0 0.0047210
 407.5 0.0044140
 410.0 0.0042420
 412.5 0.0043650
 415.0 0.0046170
 417.5 0.0047950
 420.0 0.0048260
 422.5 0.0047820
 425.0 0.0046770
 427.5 0.0044380
 430.0 0.0040960
 432.5 0.0038090
 435.0 0.0037740
 437.5 0.0039590
 440.0 0.0041800
 442.5 0.0042930
 445.0 0.0042930
 447.5 0.0042580
 450.0 0.0042150
 452.5 0.0041650
 455.0 0.0041190
 457.5 0.0040850
 460.0 0.0040590
 462.5 0.0040360
 465.0 0.0040110
 467.5 0.0039740
 470.0 0.0039300
 472.5 0.0038830
 475.0 0.0038340
 477.5 0.0037530
 480.0 0.0035740
 482.5 0.0033140
 485.0 0.0030930
 487.5 0.0030680
 490.0 0.0032090
 492.5 0.0033730
 495.0 0.0034480
 497.5 0.0034360
 500.0 0.0034070
 502.5 0.0033570
 505.0 0.0033270
 507.5 0.0032990
 510.0 0.0032540
 512.5 0.0032030
 515.0 0.0031560
 517.5 0.0031220
 520.0 0.0030760
 522.5 0.0030590
 525.0 0.0030280
 527.5 0.0029920
 530.0 0.0029680
 532.5 0.0029460
 535.0 0.0029240
 537.5 0.0028970
 540.0 0.0028630
 542.5 0.0028310
 545.0 0.0028080
 547.5 0.0027800
 550.0 0.0027420
 552.5 0.0027090
 555.0 0.0026740
 557.5 0.0026400
 560.0 0.0026110
 562.5 0.0025730
 565.0 0.0025400
 567.5 0.0025100
 570.0 0.0024820
 572.5 0.0024620
 575.0 0.0024370
 577.5 0.0024120
 580.0 0.0023860
 582.5 0.0023660
 585.0 0.0023440
 587.5 0.0023290
 590.0 0.0023120
 592.5 0.0022870
 595.0 0.0022590
 597.5 0.0022350
 600.0 0.0022120
 602.5 0.0021960
 605.0 0.0021720
 607.5 0.0021480
 610.0 0.0021200
 612.5 0.0020990
 615.0 0.0020760
 617.5 0.0020490
 620.0 0.0020290
 622.5 0.0020120
 625.0 0.0019880
 627.5 0.0019620
 630.0 0.0019460
 632.5 0.0019360
 635.0 0.0019200
 637.5 0.0019040
 640.0 0.0018860
 642.5 0.0018710
 645.0 0.0018520
 647.5 0.0018150
 650.0 0.0017200
 652.5 0.0016290
 655.0 0.0015660
 657.5 0.0015590
 660.0 0.0016000
 662.5 0.0016530
 665.0 0.0016860
 667.5 0.0016890
 670.0 0.0016800
 672.5 0.0016610
 675.0 0.0016440
 677.5 0.0016230
 680.0 0.0016040
 682.5 0.0015880
 685.0 0.0015690
 687.5 0.0015520
 690.0 0.0015360
 692.5 0.0015210
 695.0 0.0015020
 697.5 0.0014800
 700.0 0.0014630
 702.5 0.0014440
 705.0 0.0014310
 707.5 0.0014190
 710.0 0.0014090
 712.5 0.0013960
 715.0 0.0013730
 717.5 0.0013510
 720.0 0.0013340
 722.5 0.0013210
 725.0 0.0013060
 727.5 0.0012920
 730.0 0.0012780
 732.5 0.0012690
 735.0 0.0012530
 737.5 0.0012430
 740.0 0.0012210
 742.5 0.0012170
 745.0 0.0012020
 747.5 0.0011910
 750.0 0.0011880
 752.5 0.0011790
 755.0 0.0011810
 757.5 0.0011820
 760.0 0.0011760
 762.5 0.0011560
 765.0 0.0011370
 767.5 0.0011040
 770.0 0.0011010
 772.5 0.0011060
 775.0 0.0010970
 777.5 0.0010880
 780.0 0.0010800
 782.5 0.0010800
 785.0 0.0010690
 787.5 0.0010550
 790.0 0.0010410
 792.5 0.0010340
 795.0 0.0010250
 797.5 0.0010190
 800.0 0.0010170
 802.5 0.0010050
 805.0 0.0009890
 807.5 0.0009840
 810.0 0.0009720
 812.5 0.0009650
 815.0 0.0009660
 817.5 0.0009520
 820.0 0.0009300
 822.5 0.0009270
 825.0 0.0009240
 827.5 0.0009220
 830.0 0.0009120
 832.5 0.0009110
 835.0 0.0009040
 837.5 0.0008990
 840.0 0.0008950
 842.5 0.0008930
 845.0 0.0008890
 847.5 0.0008790
 850.0 0.0008730
 852.5 0.0008740
 855.0 0.0008610
 857.5 0.0008540
 860.0 0.0008550
 862.5 0.0008600
 865.0 0.0008570
 867.5 0.0008520
 870.0 0.0008550
 872.5 0.0008480
 875.0 0.0008440
 877.5 0.0008430
 880.0 0.0008430
 882.5 0.0008230
 885.0 0.0008100
 887.5 0.0007950
 890.0 0.0008050
 892.5 0.0008050
 895.0 0.0008100
 897.5 0.0007940
 900.0 0.0007670
 902.5 0.0007460
 905.0 0.0007390
 907.5 0.0007430
 910.0 0.0007610
 912.5 0.0007660
 915.0 0.0007540
 917.5 0.0007320
 920.0 0.0006980
 922.5 0.0006810
 925.0 0.0006820
 927.5 0.0007120
 930.0 0.0007270
 932.5 0.0007390
 935.0 0.0007380
 937.5 0.0007260
 940.0 0.0007140
 942.5 0.0007060
 945.0 0.0007140
 947.5 0.0006890
 950.0 0.0006580
 952.5 0.0006470
 955.0 0.0006420
 957.5 0.0006400
 960.0 0.0006420
 962.5 0.0006560
 965.0 0.0006640
 967.5 0.0006610
 970.0 0.0006640
 972.5 0.0006670
 975.0 0.0006680
 977.5 0.0006620
 980.0 0.0006550
 982.5 0.0006500
 985.0 0.0006490
 987.5 0.0006470
 990.0 0.0006390
 992.5 0.0006390
 995.0 0.0006330
 997.5 0.0006260
1000.0 0.0005980
1002.5 0.0005830
1005.0 0.0005810
1007.5 0.0005790
1010.0 0.0005820
1012.5 0.0005930
1015.0 0.0006000
1017.5 0.0006040
1020.0 0.0006060
1022.5 0.0005980
1025.0 0.0005900
1027.5 0.0005860
1030.0 0.0005840
1032.5 0.0005760
1035.0 0.0005710
1037.5 0.0005710
1040.0 0.0005730
1042.5 0.0005690
1045.0 0.0005580
1047.5 0.0005550
1050.0 0.0005530
1052.5 0.0005480
1055.0 0.0005450
1057.5 0.0005490
1060.0 0.0005370
1062.5 0.0005300
1065.0 0.0005370
1067.5 0.0005340
1070.0 0.0005230
1072.5 0.0005120
1075.0 0.0005080
1077.5 0.0005020
1080.0 0.0005030

# nm  Flux(W/m2/m) for star HR 1666 from file: table6.dat
 320.0 0.0017390
 322.5 0.0017430
 325.0 0.0017520
 327.5 0.0017860
 330.0 0.0018130
 332.5 0.0018350
 335.0 0.0018130
 337.5 0.0018250
 340.0 0.0018660
 342.5 0.0018780
 345.0 0.0018670
 347.5 0.0018740
 350.0 0.0018880
 352.5 0.0019140
 355.0 0.0019160
 357.5 0.0018500
 360.0 0.0018370
 362.5 0.0018660
 365.0 0.0018910
 367.5 0.0019270
 370.0 0.0020300
 372.5 0.0022300
 375.0 0.0025680
 377.5 0.0029730
 380.0 0.0032810
 382.5 0.0034740
 385.0 0.0040110
 387.5 0.0038440
 390.0 0.0041460
 392.5 0.0044340
 395.0 0.0037950
 397.5 0.0038800
 400.0 0.0048000
 402.5 0.0051570
 405.0 0.0050860
 407.5 0.0042110
 410.0 0.0036910
 412.5 0.0043810
 415.0 0.0048440
 417.5 0.0048710
 420.0 0.0048440
 422.5 0.0047860
 425.0 0.0047380
 427.5 0.0046430
 430.0 0.0041880
 432.5 0.0033980
 435.0 0.0034900
 437.5 0.0040960
 440.0 0.0043050
 442.5 0.0043490
 445.0 0.0043090
 447.5 0.0042500
 450.0 0.0042270
 452.5 0.0041650
 455.0 0.0041040
 457.5 0.0040740
 460.0 0.0040590
 462.5 0.0040480
 465.0 0.0040140
 467.5 0.0039740
 470.0 0.0039410
 472.5 0.0038870
 475.0 0.0038190
 477.5 0.0037950
 480.0 0.0037460
 482.5 0.0033790
 485.0 0.0027670
 487.5 0.0028630
 490.0 0.0033140
 492.5 0.0034800
 495.0 0.0034930
 497.5 0.0034480
 500.0 0.0033880
 502.5 0.0033480
 505.0 0.0033300
 507.5 0.0033110
 510.0 0.0032720
 512.5 0.0032210
 515.0 0.0031480
 517.5 0.0030990
 520.0 0.0030820
 522.5 0.0030730
 525.0 0.0030370
 527.5 0.0030120
 530.0 0.0029920
 532.5 0.0029480
 535.0 0.0029480
 537.5 0.0029240
 540.0 0.0028710
 542.5 0.0028390
 545.0 0.0028110
 547.5 0.0027690
 550.0 0.0027470
 552.5 0.0027160
 555.0 0.0026570
 557.5 0.0026330
 560.0 0.0026180
 562.5 0.0025750
 565.0 0.0025260
 567.5 0.0025030
 570.0 0.0024870
 572.5 0.0024750
 575.0 0.0024430
 577.5 0.0024120
 580.0 0.0023770
 582.5 0.0023550
 585.0 0.0023590
 587.5 0.0023400
 590.0 0.0023080
 592.5 0.0022890
 595.0 0.0022570
 597.5 0.0022240
 600.0 0.0022120
 602.5 0.0022080
 605.0 0.0021640
 607.5 0.0021500
 610.0 0.0021240
 612.5 0.0020970
 615.0 0.0020660
 617.5 0.0020530
 620.0 0.0020300
 622.5 0.0020060
 625.0 0.0019880
 627.5 0.0019530
 630.0 0.0019280
 632.5 0.0019320
 635.0 0.0019160
 637.5 0.0019070
 640.0 0.0018950
 642.5 0.0018740
 645.0 0.0018540
 647.5 0.0018230
 650.0 0.0017540
 652.5 0.0016500
 655.0 0.0014570
 657.5 0.0014740
 660.0 0.0016400
 662.5 0.0017060
 665.0 0.0017170
 667.5 0.0017030
 670.0 0.0016810
 672.5 0.0016690
 675.0 0.0016530
 677.5 0.0016230
 680.0 0.0016030
 682.5 0.0016000
 685.0 0.0015760
 687.5 0.0015230
 690.0 0.0015620
 692.5 0.0015400
 695.0 0.0015190
 697.5 0.0014860
 700.0 0.0014670
 702.5 0.0014480
 705.0 0.0014440
 707.5 0.0014200
 710.0 0.0014180
 712.5 0.0014160
 715.0 0.0014030
 717.5 0.0013500
 720.0 0.0013210
 722.5 0.0013400
 725.0 0.0013160
 727.5 0.0012850
 730.0 0.0012820
 732.5 0.0012850
 735.0 0.0012540

