# nm  Flux(W/m2/m) for star HR 1791 from file: table5.dat
 320.0 0.0148200
 322.5 0.0147600
 325.0 0.0146400
 327.5 0.0145200
 330.0 0.0144000
 332.5 0.0143100
 335.0 0.0142000
 337.5 0.0141100
 340.0 0.0140000
 342.5 0.0138900
 345.0 0.0137500
 347.5 0.0136300
 350.0 0.0135000
 352.5 0.0133800
 355.0 0.0132300
 357.5 0.0130600
 360.0 0.0128900
 362.5 0.0127400
 365.0 0.0126400
 367.5 0.0126700
 370.0 0.0129900
 372.5 0.0137300
 375.0 0.0148000
 377.5 0.0159700
 380.0 0.0170100
 382.5 0.0177300
 385.0 0.0182100
 387.5 0.0185200
 390.0 0.0187400
 392.5 0.0186900
 395.0 0.0183800
 397.5 0.0181100
 400.0 0.0181600
 402.5 0.0182800
 405.0 0.0180000
 407.5 0.0172800
 410.0 0.0166400
 412.5 0.0165700
 415.0 0.0168100
 417.5 0.0170300
 420.0 0.0169700
 422.5 0.0167300
 425.0 0.0164400
 427.5 0.0159700
 430.0 0.0152900
 432.5 0.0145900
 435.0 0.0142300
 437.5 0.0143400
 440.0 0.0145700
 442.5 0.0146400
 445.0 0.0144800
 447.5 0.0142300
 450.0 0.0140100
 452.5 0.0137900
 455.0 0.0135800
 457.5 0.0133400
 460.0 0.0131100
 462.5 0.0129100
 465.0 0.0127200
 467.5 0.0125300
 470.0 0.0123400
 472.5 0.0121300
 475.0 0.0119300
 477.5 0.0117300
 480.0 0.0113800
 482.5 0.0108800
 485.0 0.0103900
 487.5 0.0102000
 490.0 0.0102800
 492.5 0.0104400
 495.0 0.0104800
 497.5 0.0103800
 500.0 0.0102700
 502.5 0.0101000
 505.0 0.0099400
 507.5 0.0097900
 510.0 0.0096800
 512.5 0.0095500
 515.0 0.0094000
 517.5 0.0092800
 520.0 0.0091500
 522.5 0.0090300
 525.0 0.0088900
 527.5 0.0087700
 530.0 0.0086400
 532.5 0.0085300
 535.0 0.0084400
 537.5 0.0083300
 540.0 0.0082000
 542.5 0.0080800
 545.0 0.0079700
 547.5 0.0078400
 550.0 0.0077500
 552.5 0.0076300
 555.0 0.0075200
 557.5 0.0074000
 560.0 0.0072800
 562.5 0.0071600
 565.0 0.0070500
 567.5 0.0069400
 570.0 0.0068200
 572.5 0.0067300
 575.0 0.0066300
 577.5 0.0065500
 580.0 0.0064500
 582.5 0.0063700
 585.0 0.0063000
 587.5 0.0062300
 590.0 0.0061600
 592.5 0.0060800
 595.0 0.0060000
 597.5 0.0059200
 600.0 0.0058500
 602.5 0.0057900
 605.0 0.0057100
 607.5 0.0056400
 610.0 0.0055600
 612.5 0.0055000
 615.0 0.0054200
 617.5 0.0053500
 620.0 0.0052800
 622.5 0.0052000
 625.0 0.0051300
 627.5 0.0050500
 630.0 0.0049800
 632.5 0.0049200
 635.0 0.0048700
 637.5 0.0048200
 640.0 0.0047600
 642.5 0.0047200
 645.0 0.0046600
 647.5 0.0045900
 650.0 0.0044000
 652.5 0.0042400
 655.0 0.0041300
 657.5 0.0040900
 660.0 0.0041300
 662.5 0.0042000
 665.0 0.0042100
 667.5 0.0041700
 670.0 0.0041300
 672.5 0.0040800
 675.0 0.0040300
 677.5 0.0039700
 680.0 0.0039100
 682.5 0.0038600
 685.0 0.0037900
 687.5 0.0037400
 690.0 0.0036800
 692.5 0.0036400
 695.0 0.0036000
 697.5 0.0035500
 700.0 0.0034900
 702.5 0.0034400
 705.0 0.0033900
 707.5 0.0033500
 710.0 0.0033100
 712.5 0.0032600
 715.0 0.0032100
 717.5 0.0031500
 720.0 0.0031000
 722.5 0.0030700
 725.0 0.0030300
 727.5 0.0029900
 730.0 0.0029500
 732.5 0.0029200
 735.0 0.0028700
 737.5 0.0028400
 740.0 0.0028400
 742.5 0.0028100
 745.0 0.0027600
 747.5 0.0027400
 750.0 0.0027300
 752.5 0.0027000
 755.0 0.0026700
 757.5 0.0026400
 760.0 0.0026400
 762.5 0.0026000
 765.0 0.0025800
 767.5 0.0025400
 770.0 0.0025200
 772.5 0.0025100
 775.0 0.0024600
 777.5 0.0024300
 780.0 0.0024200
 782.5 0.0023900
 785.0 0.0023600
 787.5 0.0023400
 790.0 0.0023100
 792.5 0.0022800
 795.0 0.0022700
 797.5 0.0022400
 800.0 0.0022200
 802.5 0.0021900
 805.0 0.0021600
 807.5 0.0021500
 810.0 0.0021000
 812.5 0.0020900
 815.0 0.0020800
 817.5 0.0020600
 820.0 0.0020300
 822.5 0.0020200
 825.0 0.0020100
 827.5 0.0020000
 830.0 0.0019800
 832.5 0.0019600
 835.0 0.0019500
 837.5 0.0019200
 840.0 0.0019100
 842.5 0.0018900
 845.0 0.0018900
 847.5 0.0018800
 850.0 0.0018700
 852.5 0.0018600
 855.0 0.0018400
 857.5 0.0018300
 860.0 0.0018200
 862.5 0.0018300
 865.0 0.0018100
 867.5 0.0018100
 870.0 0.0018000
 872.5 0.0017900
 875.0 0.0017700
 877.5 0.0017500
 880.0 0.0017600
 882.5 0.0017200
 885.0 0.0016900
 887.5 0.0016600
 890.0 0.0016700
 892.5 0.0016700
 895.0 0.0016500
 897.5 0.0015800
 900.0 0.0015300
 902.5 0.0015100
 905.0 0.0015300
 907.5 0.0015600
 910.0 0.0015600
 912.5 0.0015500
 915.0 0.0015300
 917.5 0.0014700
 920.0 0.0014200
 922.5 0.0014000
 925.0 0.0014000
 927.5 0.0014400
 930.0 0.0014600
 932.5 0.0014600
 935.0 0.0014500
 937.5 0.0014500
 940.0 0.0014400
 942.5 0.0014200
 945.0 0.0014000
 947.5 0.0013700
 950.0 0.0013200
 952.5 0.0012800
 955.0 0.0012600
 957.5 0.0012700
 960.0 0.0012900
 962.5 0.0013000
 965.0 0.0012800
 967.5 0.0012800
 970.0 0.0012700
 972.5 0.0012600
 975.0 0.0012500
 977.5 0.0012400
 980.0 0.0012400
 982.5 0.0012400
 985.0 0.0012300
 987.5 0.0012300
 990.0 0.0012200
 992.5 0.0012000
 995.0 0.0012000
 997.5 0.0011700
1000.0 0.0011300
1002.5 0.0011000
1005.0 0.0010800
1007.5 0.0010900
1010.0 0.0011100
1012.5 0.0011300
1015.0 0.0011300
1017.5 0.0011200
1020.0 0.0011100
1022.5 0.0011000
1025.0 0.0011000
1027.5 0.0010800
1030.0 0.0010700
1032.5 0.0010600
1035.0 0.0010600
1037.5 0.0010500
1040.0 0.0010400
1042.5 0.0010400
1045.0 0.0010300
1047.5 0.0010200
1050.0 0.0010100
1052.5 0.0010000
1055.0 0.0009900
1057.5 0.0009900
1060.0 0.0009800
1062.5 0.0009800
1065.0 0.0009800
1067.5 0.0009700
1070.0 0.0009600
1072.5 0.0009500
1075.0 0.0009400
1077.5 0.0009300
1080.0 0.0009200

# nm  Flux(W/m2/m) for star HR 1791 from file: table6.dat
 320.0 0.0148900
 322.5 0.0148500
 325.0 0.0146300
 327.5 0.0144400
 330.0 0.0144300
 332.5 0.0143200
 335.0 0.0141900
 337.5 0.0140900
 340.0 0.0140200
 342.5 0.0139300
 345.0 0.0137200
 347.5 0.0136300
 350.0 0.0135000
 352.5 0.0134000
 355.0 0.0132300
 357.5 0.0131000
 360.0 0.0128700
 362.5 0.0127100
 365.0 0.0126000
 367.5 0.0124900
 370.0 0.0126600
 372.5 0.0133300
 375.0 0.0147200
 377.5 0.0162500
 380.0 0.0172200
 382.5 0.0177200
 385.0 0.0187900
 387.5 0.0182000
 390.0 0.0185500
 392.5 0.0197500
 395.0 0.0183000
 397.5 0.0171100
 400.0 0.0182800
 402.5 0.0187100
 405.0 0.0186700
 407.5 0.0174100
 410.0 0.0154700
 412.5 0.0163400
 415.0 0.0172200
 417.5 0.0172300
 420.0 0.0170100
 422.5 0.0167500
 425.0 0.0164400
 427.5 0.0161900
 430.0 0.0157200
 432.5 0.0140900
 435.0 0.0134300
 437.5 0.0144900
 440.0 0.0148900
 442.5 0.0147900
 445.0 0.0145100
 447.5 0.0141600
 450.0 0.0139700
 452.5 0.0138400
 455.0 0.0135900
 457.5 0.0133400
 460.0 0.0130700
 462.5 0.0129100
 465.0 0.0127200
 467.5 0.0125200
 470.0 0.0123700
 472.5 0.0121300
 475.0 0.0119100
 477.5 0.0117300
 480.0 0.0116000
 482.5 0.0111600
 485.0 0.0099200
 487.5 0.0097300
 490.0 0.0104700
 492.5 0.0106200
 495.0 0.0105300
 497.5 0.0103800
 500.0 0.0102900
 502.5 0.0100600
 505.0 0.0099000
 507.5 0.0097700
 510.0 0.0096400
 512.5 0.0094800
 515.0 0.0093600
 517.5 0.0092800
 520.0 0.0091400
 522.5 0.0089800
 525.0 0.0088300
 527.5 0.0087200
 530.0 0.0085800
 532.5 0.0085000
 535.0 0.0084200
 537.5 0.0083300
 540.0 0.0081800
 542.5 0.0080400
 545.0 0.0079200
 547.5 0.0078100
 550.0 0.0077300
 552.5 0.0076300
 555.0 0.0074900
 557.5 0.0073600
 560.0 0.0072600
 562.5 0.0071400
 565.0 0.0070100
 567.5 0.0069100
 570.0 0.0068200
 572.5 0.0067100
 575.0 0.0066000
 577.5 0.0065300
 580.0 0.0064000
 582.5 0.0063400
 585.0 0.0062900
 587.5 0.0062200
 590.0 0.0061500
 592.5 0.0060600
 595.0 0.0059800
 597.5 0.0059000
 600.0 0.0058200
 602.5 0.0057500
 605.0 0.0056700
 607.5 0.0055900
 610.0 0.0055200
 612.5 0.0054800
 615.0 0.0053900
 617.5 0.0053100
 620.0 0.0052400
 622.5 0.0051700
 625.0 0.0051000
 627.5 0.0050200
 630.0 0.0049400
 632.5 0.0049100
 635.0 0.0048500
 637.5 0.0048000
 640.0 0.0047500
 642.5 0.0047000
 645.0 0.0046600
 647.5 0.0045800
 650.0 0.0044300
 652.5 0.0043000
 655.0 0.0040400
 657.5 0.0039600
 660.0 0.0041900
 662.5 0.0042700
 665.0 0.0042500
 667.5 0.0041800
 670.0 0.0041200
 672.5 0.0040700
 675.0 0.0040300
 677.5 0.0039700
 680.0 0.0039100
 682.5 0.0038700
 685.0 0.0037900
 687.5 0.0037200
 690.0 0.0036900
 692.5 0.0036500
 695.0 0.0035900
 697.5 0.0035500
 700.0 0.0035000
 702.5 0.0034400
 705.0 0.0033900
 707.5 0.0033400
 710.0 0.0032900
 712.5 0.0032500
 715.0 0.0032100
 717.5 0.0031300
 720.0 0.0030500
 722.5 0.0030400
 725.0 0.0030200
 727.5 0.0029700
 730.0 0.0029300
 732.5 0.0029100
 735.0 0.0028400

