# nm  Flux(W/m2/m) for star HR 1899 from file: table5.dat
 320.0 0.0142300
 322.5 0.0139300
 325.0 0.0135900
 327.5 0.0132700
 330.0 0.0129800
 332.5 0.0127400
 335.0 0.0125200
 337.5 0.0123300
 340.0 0.0121300
 342.5 0.0119200
 345.0 0.0116900
 347.5 0.0114900
 350.0 0.0112600
 352.5 0.0110300
 355.0 0.0107600
 357.5 0.0105300
 360.0 0.0103100
 362.5 0.0101000
 365.0 0.0098800
 367.5 0.0096300
 370.0 0.0093600
 372.5 0.0091000
 375.0 0.0089100
 377.5 0.0087900
 380.0 0.0087000
 382.5 0.0086100
 385.0 0.0085200
 387.5 0.0084200
 390.0 0.0083000
 392.5 0.0081300
 395.0 0.0079400
 397.5 0.0077600
 400.0 0.0076200
 402.5 0.0074800
 405.0 0.0073000
 407.5 0.0071000
 410.0 0.0069500
 412.5 0.0068900
 415.0 0.0068500
 417.5 0.0067900
 420.0 0.0066900
 422.5 0.0065800
 425.0 0.0064500
 427.5 0.0062900
 430.0 0.0061000
 432.5 0.0059500
 435.0 0.0058600
 437.5 0.0058000
 440.0 0.0057400
 442.5 0.0056500
 445.0 0.0055500
 447.5 0.0054400
 450.0 0.0053400
 452.5 0.0052400
 455.0 0.0051600
 457.5 0.0050700
 460.0 0.0049800
 462.5 0.0048900
 465.0 0.0048000
 467.5 0.0047200
 470.0 0.0046600
 472.5 0.0046000
 475.0 0.0045400
 477.5 0.0044700
 480.0 0.0043700
 482.5 0.0042500
 485.0 0.0041500
 487.5 0.0040900
 490.0 0.0040600
 492.5 0.0040200
 495.0 0.0039700
 497.5 0.0039200
 500.0 0.0038600
 502.5 0.0038000
 505.0 0.0037400
 507.5 0.0036800
 510.0 0.0036100
 512.5 0.0035500
 515.0 0.0035000
 517.5 0.0034600
 520.0 0.0034000
 522.5 0.0033500
 525.0 0.0032800
 527.5 0.0032300
 530.0 0.0031900
 532.5 0.0031400
 535.0 0.0030900
 537.5 0.0030400
 540.0 0.0029700
 542.5 0.0029300
 545.0 0.0028800
 547.5 0.0028400
 550.0 0.0028200
 552.5 0.0027700
 555.0 0.0027100
 557.5 0.0026700
 560.0 0.0026300
 562.5 0.0025800
 565.0 0.0025300
 567.5 0.0025000
 570.0 0.0024600
 572.5 0.0024200
 575.0 0.0023800
 577.5 0.0023300
 580.0 0.0022800
 582.5 0.0022400
 585.0 0.0022100
 587.5 0.0021900
 590.0 0.0021700
 592.5 0.0021500
 595.0 0.0021300
 597.5 0.0021000
 600.0 0.0020700
 602.5 0.0020500
 605.0 0.0020200
 607.5 0.0019900
 610.0 0.0019600
 612.5 0.0019300
 615.0 0.0019000
 617.5 0.0018700
 620.0 0.0018400
 622.5 0.0018200
 625.0 0.0017800
 627.5 0.0017400
 630.0 0.0017200
 632.5 0.0017100
 635.0 0.0016900
 637.5 0.0016700
 640.0 0.0016500
 642.5 0.0016300
 645.0 0.0016100
 647.5 0.0015800
 650.0 0.0015200
 652.5 0.0014800
 655.0 0.0014500
 657.5 0.0014400
 660.0 0.0014400
 662.5 0.0014400
 665.0 0.0014300
 667.5 0.0014100
 670.0 0.0014000
 672.5 0.0013800
 675.0 0.0013700
 677.5 0.0013500
 680.0 0.0013200
 682.5 0.0013000
 685.0 0.0012800
 687.5 0.0012600
 690.0 0.0012500
 692.5 0.0012400
 695.0 0.0012200
 697.5 0.0012000
 700.0 0.0011900
 702.5 0.0011600
 705.0 0.0011400
 707.5 0.0011300
 710.0 0.0011100
 712.5 0.0011000
 715.0 0.0010800
 717.5 0.0010600
 720.0 0.0010400
 722.5 0.0010300
 725.0 0.0010200
 727.5 0.0010000
 730.0 0.0009900
 732.5 0.0009800
 735.0 0.0009600
 737.5 0.0009500
 740.0 0.0009400
 742.5 0.0009200
 745.0 0.0009000
 747.5 0.0008900
 750.0 0.0008900
 752.5 0.0008800
 755.0 0.0008700
 757.5 0.0008700
 760.0 0.0008700
 762.5 0.0008500
 765.0 0.0008500
 767.5 0.0008300
 770.0 0.0008200
 772.5 0.0008300
 775.0 0.0008200
 777.5 0.0008000
 780.0 0.0007800
 782.5 0.0007700
 785.0 0.0007700
 787.5 0.0007600
 790.0 0.0007400
 792.5 0.0007400
 795.0 0.0007300
 797.5 0.0007200
 800.0 0.0007200
 802.5 0.0007100
 805.0 0.0007000
 807.5 0.0006900
 810.0 0.0006800
 812.5 0.0006700
 815.0 0.0006600
 817.5 0.0006600
 820.0 0.0006500
 822.5 0.0006500
 825.0 0.0006500
 827.5 0.0006500
 830.0 0.0006300
 832.5 0.0006300
 835.0 0.0006300
 837.5 0.0006200
 840.0 0.0006100
 842.5 0.0006000
 845.0 0.0006000
 847.5 0.0005900
 850.0 0.0005900
 852.5 0.0005900
 855.0 0.0005900
 857.5 0.0005700
 860.0 0.0005600
 862.5 0.0005800
 865.0 0.0005600
 867.5 0.0005600
 870.0 0.0005600
 872.5 0.0005500
 875.0 0.0005400
 877.5 0.0005300
 880.0 0.0005300
 882.5 0.0005200
 885.0 0.0005100
 887.5 0.0005100
 890.0 0.0005000
 892.5 0.0004800
 895.0 0.0004700
 897.5 0.0004700
 900.0 0.0004600
 902.5 0.0004600
 905.0 0.0004600
 907.5 0.0004500
 910.0 0.0004400
 912.5 0.0004400
 915.0 0.0004400
 917.5 0.0004400
 920.0 0.0004400
 922.5 0.0004400
 925.0 0.0004300
 927.5 0.0004300
 930.0 0.0004200
 932.5 0.0004100
 935.0 0.0004300
 937.5 0.0004300
 940.0 0.0004300
 942.5 0.0004100
 945.0 0.0004000
 947.5 0.0004000
 950.0 0.0003900
 952.5 0.0003800
 955.0 0.0003700
 957.5 0.0003800
 960.0 0.0003700
 962.5 0.0003700
 965.0 0.0003600
 967.5 0.0003700
 970.0 0.0003600
 972.5 0.0003600
 975.0 0.0003600
 977.5 0.0003500
 980.0 0.0003600
 982.5 0.0003500
 985.0 0.0003500
 987.5 0.0003500
 990.0 0.0003400
 992.5 0.0003400
 995.0 0.0003400
 997.5 0.0003400
1000.0 0.0003300
1002.5 0.0003200
1005.0 0.0003200
1007.5 0.0003200
1010.0 0.0003200
1012.5 0.0003200
1015.0 0.0003200
1017.5 0.0003200
1020.0 0.0003200
1022.5 0.0003200
1025.0 0.0003200
1027.5 0.0003100
1030.0 0.0003100
1032.5 0.0003100
1035.0 0.0003100
1037.5 0.0003100
1040.0 0.0003000
1042.5 0.0003000
1045.0 0.0002900
1047.5 0.0002900
1050.0 0.0002900
1052.5 0.0002900
1055.0 0.0002800
1057.5 0.0002800
1060.0 0.0002800
1062.5 0.0002800
1065.0 0.0002800
1067.5 0.0002800
1070.0 0.0002800
1072.5 0.0002700
1075.0 0.0002700
1077.5 0.0002700
1080.0 0.0002700

# nm  Flux(W/m2/m) for star HR 1899 from file: table6.dat
 320.0 0.0141900
 322.5 0.0141000
 325.0 0.0135100
 327.5 0.0131800
 330.0 0.0130000
 332.5 0.0127500
 335.0 0.0124500
 337.5 0.0123300
 340.0 0.0121900
 342.5 0.0119300
 345.0 0.0116200
 347.5 0.0115300
 350.0 0.0113000
 352.5 0.0110400
 355.0 0.0107200
 357.5 0.0105500
 360.0 0.0103000
 362.5 0.0100600
 365.0 0.0099400
 367.5 0.0097000
 370.0 0.0093200
 372.5 0.0090300
 375.0 0.0088500
 377.5 0.0088100
 380.0 0.0087000
 382.5 0.0085800
 385.0 0.0085800
 387.5 0.0083500
 390.0 0.0083900
 392.5 0.0082000
 395.0 0.0078600
 397.5 0.0077300
 400.0 0.0076300
 402.5 0.0075000
 405.0 0.0074100
 407.5 0.0070100
 410.0 0.0068100
 412.5 0.0069100
 415.0 0.0069100
 417.5 0.0068000
 420.0 0.0066900
 422.5 0.0066100
 425.0 0.0064600
 427.5 0.0063200
 430.0 0.0061100
 432.5 0.0058600
 435.0 0.0058100
 437.5 0.0058300
 440.0 0.0057800
 442.5 0.0056600
 445.0 0.0055300
 447.5 0.0054400
 450.0 0.0053400
 452.5 0.0052300
 455.0 0.0051600
 457.5 0.0050800
 460.0 0.0049800
 462.5 0.0048900
 465.0 0.0047900
 467.5 0.0047200
 470.0 0.0046600
 472.5 0.0045900
 475.0 0.0045500
 477.5 0.0044900
 480.0 0.0044200
 482.5 0.0042400
 485.0 0.0040600
 487.5 0.0040700
 490.0 0.0040900
 492.5 0.0040300
 495.0 0.0039700
 497.5 0.0039200
 500.0 0.0038600
 502.5 0.0038100
 505.0 0.0037300
 507.5 0.0036800
 510.0 0.0036200
 512.5 0.0035600
 515.0 0.0035000
 517.5 0.0034600
 520.0 0.0034200
 522.5 0.0033500
 525.0 0.0032800
 527.5 0.0032400
 530.0 0.0032000
 532.5 0.0031400
 535.0 0.0031000
 537.5 0.0030500
 540.0 0.0029700
 542.5 0.0029200
 545.0 0.0028800
 547.5 0.0028400
 550.0 0.0028200
 552.5 0.0027600
 555.0 0.0027000
 557.5 0.0026700
 560.0 0.0026300
 562.5 0.0025700
 565.0 0.0025200
 567.5 0.0024900
 570.0 0.0024600
 572.5 0.0024100
 575.0 0.0023700
 577.5 0.0023500
 580.0 0.0022700
 582.5 0.0022200
 585.0 0.0022000
 587.5 0.0021700
 590.0 0.0021600
 592.5 0.0021500
 595.0 0.0021300
 597.5 0.0021000
 600.0 0.0020700
 602.5 0.0020600
 605.0 0.0020200
 607.5 0.0019900
 610.0 0.0019500
 612.5 0.0019300
 615.0 0.0018900
 617.5 0.0018500
 620.0 0.0018300
 622.5 0.0018100
 625.0 0.0017700
 627.5 0.0017300
 630.0 0.0017200
 632.5 0.0017100
 635.0 0.0016900
 637.5 0.0016600
 640.0 0.0016300
 642.5 0.0016300
 645.0 0.0016200
 647.5 0.0015800
 650.0 0.0015300
 652.5 0.0014800
 655.0 0.0014500
 657.5 0.0014400
 660.0 0.0014600
 662.5 0.0014700
 665.0 0.0014500
 667.5 0.0014100
 670.0 0.0014000
 672.5 0.0014000
 675.0 0.0013700
 677.5 0.0013500
 680.0 0.0013300
 682.5 0.0013200
 685.0 0.0012800
 687.5 0.0012500
 690.0 0.0012800
 692.5 0.0012600
 695.0 0.0012300
 697.5 0.0012100
 700.0 0.0011900
 702.5 0.0011700
 705.0 0.0011600
 707.5 0.0011300
 710.0 0.0011100
 712.5 0.0011000
 715.0 0.0010900
 717.5 0.0010500
 720.0 0.0010300
 722.5 0.0010400
 725.0 0.0010300
 727.5 0.0010000
 730.0 0.0009900
 732.5 0.0009900
 735.0 0.0009600

