# nm  Flux(W/m2/m) for star HR 2004 from file: table5.dat
 320.0 0.0224500
 322.5 0.0222400
 325.0 0.0219400
 327.5 0.0216000
 330.0 0.0212600
 332.5 0.0209100
 335.0 0.0205900
 337.5 0.0203400
 340.0 0.0201000
 342.5 0.0198600
 345.0 0.0195900
 347.5 0.0192800
 350.0 0.0189100
 352.5 0.0185500
 355.0 0.0181500
 357.5 0.0177800
 360.0 0.0174300
 362.5 0.0171400
 365.0 0.0168600
 367.5 0.0165500
 370.0 0.0162200
 372.5 0.0159400
 375.0 0.0157600
 377.5 0.0156000
 380.0 0.0154000
 382.5 0.0151900
 385.0 0.0150000
 387.5 0.0148300
 390.0 0.0146400
 392.5 0.0144100
 395.0 0.0141000
 397.5 0.0137500
 400.0 0.0134300
 402.5 0.0131200
 405.0 0.0128000
 407.5 0.0124400
 410.0 0.0121600
 412.5 0.0120200
 415.0 0.0119900
 417.5 0.0119600
 420.0 0.0118500
 422.5 0.0116800
 425.0 0.0114700
 427.5 0.0112100
 430.0 0.0109100
 432.5 0.0106200
 435.0 0.0103900
 437.5 0.0102700
 440.0 0.0101700
 442.5 0.0100400
 445.0 0.0098600
 447.5 0.0097000
 450.0 0.0095400
 452.5 0.0093800
 455.0 0.0092200
 457.5 0.0090400
 460.0 0.0088500
 462.5 0.0086500
 465.0 0.0084900
 467.5 0.0084000
 470.0 0.0083800
 472.5 0.0083600
 475.0 0.0082900
 477.5 0.0081700
 480.0 0.0080000
 482.5 0.0078100
 485.0 0.0076300
 487.5 0.0075000
 490.0 0.0074000
 492.5 0.0073200
 495.0 0.0072400
 497.5 0.0071500
 500.0 0.0070400
 502.5 0.0069400
 505.0 0.0068500
 507.5 0.0067600
 510.0 0.0066300
 512.5 0.0065300
 515.0 0.0064300
 517.5 0.0063400
 520.0 0.0062600
 522.5 0.0061700
 525.0 0.0060900
 527.5 0.0060100
 530.0 0.0059300
 532.5 0.0058600
 535.0 0.0057700
 537.5 0.0056900
 540.0 0.0056100
 542.5 0.0055200
 545.0 0.0054300
 547.5 0.0053600
 550.0 0.0052900
 552.5 0.0052200
 555.0 0.0051400
 557.5 0.0050600
 560.0 0.0049800
 562.5 0.0048800
 565.0 0.0047800
 567.5 0.0046900
 570.0 0.0046100
 572.5 0.0045400
 575.0 0.0044800
 577.5 0.0044100
 580.0 0.0043300
 582.5 0.0042700
 585.0 0.0042200
 587.5 0.0041900
 590.0 0.0041700
 592.5 0.0041400
 595.0 0.0041000
 597.5 0.0040400
 600.0 0.0039700
 602.5 0.0039200
 605.0 0.0038800
 607.5 0.0038300
 610.0 0.0037800
 612.5 0.0037300
 615.0 0.0036800
 617.5 0.0036400
 620.0 0.0035800
 622.5 0.0035100
 625.0 0.0034400
 627.5 0.0034000
 630.0 0.0033600
 632.5 0.0033300
 635.0 0.0033000
 637.5 0.0032600
 640.0 0.0032200
 642.5 0.0032000
 645.0 0.0031500
 647.5 0.0030900
 650.0 0.0029800
 652.5 0.0029200
 655.0 0.0028700
 657.5 0.0028400
 660.0 0.0028200
 662.5 0.0027900
 665.0 0.0027500
 667.5 0.0027200
 670.0 0.0027000
 672.5 0.0026800
 675.0 0.0026700
 677.5 0.0026400
 680.0 0.0026100
 682.5 0.0025800
 685.0 0.0025400
 687.5 0.0025000
 690.0 0.0024500
 692.5 0.0024100
 695.0 0.0023900
 697.5 0.0023700
 700.0 0.0023400
 702.5 0.0023000
 705.0 0.0022600
 707.5 0.0022300
 710.0 0.0022100
 712.5 0.0021800
 715.0 0.0021500
 717.5 0.0021100
 720.0 0.0020800
 722.5 0.0020600
 725.0 0.0020300
 727.5 0.0020000
 730.0 0.0019700
 732.5 0.0019400
 735.0 0.0019100
 737.5 0.0018900
 740.0 0.0018600
 742.5 0.0018600
 745.0 0.0018300
 747.5 0.0018100
 750.0 0.0018000
 752.5 0.0017800
 755.0 0.0017700
 757.5 0.0017700
 760.0 0.0017500
 762.5 0.0017000
 765.0 0.0016600
 767.5 0.0016300
 770.0 0.0016300
 772.5 0.0016600
 775.0 0.0016300
 777.5 0.0016100
 780.0 0.0015900
 782.5 0.0015800
 785.0 0.0015600
 787.5 0.0015400
 790.0 0.0015100
 792.5 0.0015000
 795.0 0.0014800
 797.5 0.0014700
 800.0 0.0014500
 802.5 0.0014400
 805.0 0.0014200
 807.5 0.0014100
 810.0 0.0013900
 812.5 0.0013800
 815.0 0.0013700
 817.5 0.0013700
 820.0 0.0013500
 822.5 0.0013300
 825.0 0.0013200
 827.5 0.0013200
 830.0 0.0013000
 832.5 0.0012900
 835.0 0.0012800
 837.5 0.0012600
 840.0 0.0012500
 842.5 0.0012500
 845.0 0.0012400
 847.5 0.0012300
 850.0 0.0012200
 852.5 0.0012100
 855.0 0.0012000
 857.5 0.0011900
 860.0 0.0011900
 862.5 0.0011900
 865.0 0.0011700
 867.5 0.0011600
 870.0 0.0011600
 872.5 0.0011400
 875.0 0.0011200
 877.5 0.0011100
 880.0 0.0011000
 882.5 0.0010800
 885.0 0.0010600
 887.5 0.0010500
 890.0 0.0010500
 892.5 0.0010100
 895.0 0.0010000
 897.5 0.0009800
 900.0 0.0009700
 902.5 0.0009500
 905.0 0.0009500
 907.5 0.0009500
 910.0 0.0009500
 912.5 0.0009300
 915.0 0.0009300
 917.5 0.0009300
 920.0 0.0009200
 922.5 0.0009100
 925.0 0.0009100
 927.5 0.0009300
 930.0 0.0009300
 932.5 0.0009100
 935.0 0.0008900
 937.5 0.0008800
 940.0 0.0008700
 942.5 0.0008600
 945.0 0.0008500
 947.5 0.0008200
 950.0 0.0008000
 952.5 0.0007900
 955.0 0.0007900
 957.5 0.0007900
 960.0 0.0007900
 962.5 0.0008000
 965.0 0.0007800
 967.5 0.0007800
 970.0 0.0007700
 972.5 0.0007700
 975.0 0.0007700
 977.5 0.0007600
 980.0 0.0007500
 982.5 0.0007500
 985.0 0.0007400
 987.5 0.0007400
 990.0 0.0007400
 992.5 0.0007300
 995.0 0.0007300
 997.5 0.0007200
1000.0 0.0007000
1002.5 0.0006900
1005.0 0.0006800
1007.5 0.0006900
1010.0 0.0006900
1012.5 0.0006900
1015.0 0.0006900
1017.5 0.0006800
1020.0 0.0006800
1022.5 0.0006700
1025.0 0.0006700
1027.5 0.0006600
1030.0 0.0006600
1032.5 0.0006500
1035.0 0.0006500
1037.5 0.0006400
1040.0 0.0006500
1042.5 0.0006500
1045.0 0.0006300
1047.5 0.0006300
1050.0 0.0006200
1052.5 0.0006200
1055.0 0.0006100
1057.5 0.0006000
1060.0 0.0006000
1062.5 0.0006000
1065.0 0.0006000
1067.5 0.0006000
1070.0 0.0006000
1072.5 0.0006000
1075.0 0.0005900
1077.5 0.0005800
1080.0 0.0005800

# nm  Flux(W/m2/m) for star HR 2004 from file: table6.dat
 320.0 0.0224700
 322.5 0.0223500
 325.0 0.0219200
 327.5 0.0216000
 330.0 0.0212800
 332.5 0.0209500
 335.0 0.0204600
 337.5 0.0203600
 340.0 0.0200800
 342.5 0.0199300
 345.0 0.0195500
 347.5 0.0193400
 350.0 0.0189300
 352.5 0.0185900
 355.0 0.0181100
 357.5 0.0177500
 360.0 0.0174400
 362.5 0.0170600
 365.0 0.0168400
 367.5 0.0167300
 370.0 0.0161300
 372.5 0.0157600
 375.0 0.0157500
 377.5 0.0157500
 380.0 0.0154300
 382.5 0.0150200
 385.0 0.0150700
 387.5 0.0148700
 390.0 0.0145200
 392.5 0.0146300
 395.0 0.0141300
 397.5 0.0136600
 400.0 0.0133900
 402.5 0.0131000
 405.0 0.0130000
 407.5 0.0123800
 410.0 0.0118500
 412.5 0.0119800
 415.0 0.0120900
 417.5 0.0119800
 420.0 0.0118900
 422.5 0.0117300
 425.0 0.0114600
 427.5 0.0112400
 430.0 0.0110400
 432.5 0.0104800
 435.0 0.0102100
 437.5 0.0103500
 440.0 0.0102100
 442.5 0.0100600
 445.0 0.0098400
 447.5 0.0096600
 450.0 0.0095500
 452.5 0.0094400
 455.0 0.0091900
 457.5 0.0090500
 460.0 0.0089300
 462.5 0.0086100
 465.0 0.0083700
 467.5 0.0083800
 470.0 0.0083700
 472.5 0.0084000
 475.0 0.0083300
 477.5 0.0081700
 480.0 0.0080300
 482.5 0.0078500
 485.0 0.0075400
 487.5 0.0074700
 490.0 0.0074300
 492.5 0.0072800
 495.0 0.0072600
 497.5 0.0072000
 500.0 0.0070300
 502.5 0.0068900
 505.0 0.0068300
 507.5 0.0068200
 510.0 0.0066600
 512.5 0.0065300
 515.0 0.0064800
 517.5 0.0064200
 520.0 0.0063300
 522.5 0.0062200
 525.0 0.0061600
 527.5 0.0060800
 530.0 0.0059900
 532.5 0.0059100
 535.0 0.0058400
 537.5 0.0057400
 540.0 0.0056500
 542.5 0.0055900
 545.0 0.0054800
 547.5 0.0053800
 550.0 0.0053100
 552.5 0.0052400
 555.0 0.0051400
 557.5 0.0050900
 560.0 0.0050100
 562.5 0.0049100
 565.0 0.0047900
 567.5 0.0046700
 570.0 0.0046200
 572.5 0.0045300
 575.0 0.0044800
 577.5 0.0044400
 580.0 0.0043200
 582.5 0.0042400
 585.0 0.0042800
 587.5 0.0042600
 590.0 0.0042500
 592.5 0.0042400
 595.0 0.0042000
 597.5 0.0041200
 600.0 0.0040000
 602.5 0.0040000
 605.0 0.0039500
 607.5 0.0039000
 610.0 0.0038300
 612.5 0.0037800
 615.0 0.0037300
 617.5 0.0036700
 620.0 0.0035900
 622.5 0.0035400
 625.0 0.0035100
 627.5 0.0034300
 630.0 0.0033700
 632.5 0.0033900
 635.0 0.0033400
 637.5 0.0033100
 640.0 0.0032600
 642.5 0.0032500
 645.0 0.0032200
 647.5 0.0031300
 650.0 0.0030100
 652.5 0.0029600
 655.0 0.0029200
 657.5 0.0028600
 660.0 0.0028500
 662.5 0.0028300
 665.0 0.0028000
 667.5 0.0027200
 670.0 0.0027000
 672.5 0.0027200
 675.0 0.0027000
 677.5 0.0026500
 680.0 0.0026200
 682.5 0.0026200
 685.0 0.0026200
 687.5 0.0024800
 690.0 0.0024900
 692.5 0.0024200
 695.0 0.0024000
 697.5 0.0023900
 700.0 0.0023800
 702.5 0.0023400
 705.0 0.0022800
 707.5 0.0022600
 710.0 0.0022400
 712.5 0.0022200
 715.0 0.0021900
 717.5 0.0021100
 720.0 0.0020600
 722.5 0.0021100
 725.0 0.0020900
 727.5 0.0020000
 730.0 0.0019600
 732.5 0.0019800
 735.0 0.0019400

