# nm  Flux(W/m2/m) for star HR 403 from file: table5.dat
 320.0 0.0018600
 322.5 0.0018600
 325.0 0.0018670
 327.5 0.0018790
 330.0 0.0018880
 332.5 0.0018910
 335.0 0.0018950
 337.5 0.0019140
 340.0 0.0019430
 342.5 0.0019620
 345.0 0.0019680
 347.5 0.0019700
 350.0 0.0019770
 352.5 0.0019820
 355.0 0.0019770
 357.5 0.0019640
 360.0 0.0019660
 362.5 0.0019880
 365.0 0.0020300
 367.5 0.0020910
 370.0 0.0022000
 372.5 0.0023940
 375.0 0.0026870
 377.5 0.0030340
 380.0 0.0034040
 382.5 0.0037190
 385.0 0.0039960
 387.5 0.0041880
 390.0 0.0043090
 392.5 0.0043170
 395.0 0.0043370
 397.5 0.0045120
 400.0 0.0048840
 402.5 0.0051950
 405.0 0.0051710
 407.5 0.0048660
 410.0 0.0046170
 412.5 0.0046900
 415.0 0.0049660
 417.5 0.0052050
 420.0 0.0052920
 422.5 0.0052630
 425.0 0.0051710
 427.5 0.0049570
 430.0 0.0046090
 432.5 0.0042700
 435.0 0.0041570
 437.5 0.0043250
 440.0 0.0045880
 442.5 0.0047690
 445.0 0.0048080
 447.5 0.0047860
 450.0 0.0047510
 452.5 0.0047030
 455.0 0.0046470
 457.5 0.0045960
 460.0 0.0045540
 462.5 0.0045210
 465.0 0.0044870
 467.5 0.0044460
 470.0 0.0043970
 472.5 0.0043450
 475.0 0.0042850
 477.5 0.0041920
 480.0 0.0040030
 482.5 0.0037120
 485.0 0.0034320
 487.5 0.0033360
 490.0 0.0034450
 492.5 0.0036270
 495.0 0.0037500
 497.5 0.0037770
 500.0 0.0037600
 502.5 0.0037260
 505.0 0.0036880
 507.5 0.0036540
 510.0 0.0036310
 512.5 0.0035710
 515.0 0.0035160
 517.5 0.0034510
 520.0 0.0034200
 522.5 0.0033760
 525.0 0.0033300
 527.5 0.0033020
 530.0 0.0032810
 532.5 0.0032660
 535.0 0.0032390
 537.5 0.0032060
 540.0 0.0031680
 542.5 0.0031450
 545.0 0.0031130
 547.5 0.0030870
 550.0 0.0030700
 552.5 0.0030390
 555.0 0.0029900
 557.5 0.0029510
 560.0 0.0029050
 562.5 0.0028650
 565.0 0.0028370
 567.5 0.0028130
 570.0 0.0027720
 572.5 0.0027440
 575.0 0.0027210
 577.5 0.0027010
 580.0 0.0026640
 582.5 0.0026380
 585.0 0.0026060
 587.5 0.0025850
 590.0 0.0025590
 592.5 0.0025440
 595.0 0.0025190
 597.5 0.0024890
 600.0 0.0024520
 602.5 0.0024340
 605.0 0.0024100
 607.5 0.0023880
 610.0 0.0023510
 612.5 0.0023270
 615.0 0.0022990
 617.5 0.0022740
 620.0 0.0022660
 622.5 0.0022450
 625.0 0.0022180
 627.5 0.0021780
 630.0 0.0021560
 632.5 0.0021420
 635.0 0.0021090
 637.5 0.0020840
 640.0 0.0020740
 642.5 0.0020610
 645.0 0.0020380
 647.5 0.0020040
 650.0 0.0018970
 652.5 0.0018010
 655.0 0.0017390
 657.5 0.0017220
 660.0 0.0017700
 662.5 0.0018400
 665.0 0.0018780
 667.5 0.0018780
 670.0 0.0018600
 672.5 0.0018420
 675.0 0.0018280
 677.5 0.0018010
 680.0 0.0017820
 682.5 0.0017700
 685.0 0.0017470
 687.5 0.0017270
 690.0 0.0017060
 692.5 0.0016840
 695.0 0.0016630
 697.5 0.0016340
 700.0 0.0016080
 702.5 0.0015880
 705.0 0.0015690
 707.5 0.0015570
 710.0 0.0015390
 712.5 0.0015180
 715.0 0.0015010
 717.5 0.0014780
 720.0 0.0014590
 722.5 0.0014470
 725.0 0.0014320
 727.5 0.0014150
 730.0 0.0013970
 732.5 0.0013920
 735.0 0.0013790
 737.5 0.0013690
 740.0 0.0013500
 742.5 0.0013400
 745.0 0.0013240
 747.5 0.0013130
 750.0 0.0013090
 752.5 0.0013030
 755.0 0.0013010
 757.5 0.0012860
 760.0 0.0012750
 762.5 0.0012580
 765.0 0.0012450
 767.5 0.0012300
 770.0 0.0012250
 772.5 0.0012180
 775.0 0.0011990
 777.5 0.0011950
 780.0 0.0011880
 782.5 0.0011780
 785.0 0.0011730
 787.5 0.0011630
 790.0 0.0011420
 792.5 0.0011340
 795.0 0.0011250
 797.5 0.0011210
 800.0 0.0011140
 802.5 0.0010990
 805.0 0.0010890
 807.5 0.0010800
 810.0 0.0010670
 812.5 0.0010550
 815.0 0.0010450
 817.5 0.0010370
 820.0 0.0010200
 822.5 0.0010140
 825.0 0.0010150
 827.5 0.0010160
 830.0 0.0010090
 832.5 0.0010030
 835.0 0.0009940
 837.5 0.0009840
 840.0 0.0009820
 842.5 0.0009790
 845.0 0.0009770
 847.5 0.0009650
 850.0 0.0009570
 852.5 0.0009550
 855.0 0.0009470
 857.5 0.0009500
 860.0 0.0009490
 862.5 0.0009450
 865.0 0.0009370
 867.5 0.0009340
 870.0 0.0009320
 872.5 0.0009320
 875.0 0.0009240
 877.5 0.0009250
 880.0 0.0009250
 882.5 0.0009040
 885.0 0.0008860
 887.5 0.0008760
 890.0 0.0008930
 892.5 0.0008990
 895.0 0.0008830
 897.5 0.0008460
 900.0 0.0008220
 902.5 0.0008080
 905.0 0.0008260
 907.5 0.0008400
 910.0 0.0008420
 912.5 0.0008430
 915.0 0.0008360
 917.5 0.0008110
 920.0 0.0007900
 922.5 0.0007770
 925.0 0.0007830
 927.5 0.0008090
 930.0 0.0008250
 932.5 0.0008210
 935.0 0.0008080
 937.5 0.0007990
 940.0 0.0007980
 942.5 0.0007990
 945.0 0.0007770
 947.5 0.0007530
 950.0 0.0007190
 952.5 0.0006920
 955.0 0.0006860
 957.5 0.0006970
 960.0 0.0007180
 962.5 0.0007220
 965.0 0.0007240
 967.5 0.0007320
 970.0 0.0007240
 972.5 0.0007210
 975.0 0.0007200
 977.5 0.0007180
 980.0 0.0007110
 982.5 0.0007130
 985.0 0.0007070
 987.5 0.0007020
 990.0 0.0006970
 992.5 0.0006960
 995.0 0.0006950
 997.5 0.0006790
1000.0 0.0006460
1002.5 0.0006220
1005.0 0.0006190
1007.5 0.0006290
1010.0 0.0006480
1012.5 0.0006660
1015.0 0.0006710
1017.5 0.0006640
1020.0 0.0006630
1022.5 0.0006610
1025.0 0.0006540
1027.5 0.0006500
1030.0 0.0006460
1032.5 0.0006400
1035.0 0.0006340
1037.5 0.0006310
1040.0 0.0006230
1042.5 0.0006190
1045.0 0.0006140
1047.5 0.0006080
1050.0 0.0006080
1052.5 0.0006050
1055.0 0.0006010
1057.5 0.0005940
1060.0 0.0005880
1062.5 0.0005880
1065.0 0.0005840
1067.5 0.0005750
1070.0 0.0005700
1072.5 0.0005610
1075.0 0.0005570
1077.5 0.0005520
1080.0 0.0005500

# nm  Flux(W/m2/m) for star HR 403 from file: table6.dat
 320.0 0.0018760
 322.5 0.0018430
 325.0 0.0018550
 327.5 0.0018810
 330.0 0.0019090
 332.5 0.0018930
 335.0 0.0018690
 337.5 0.0019020
 340.0 0.0019550
 342.5 0.0019840
 345.0 0.0019720
 347.5 0.0019570
 350.0 0.0019620
 352.5 0.0020100
 355.0 0.0020040
 357.5 0.0019320
 360.0 0.0019410
 362.5 0.0019820
 365.0 0.0020320
 367.5 0.0020630
 370.0 0.0021460
 372.5 0.0022930
 375.0 0.0026130
 377.5 0.0030850
 380.0 0.0034420
 382.5 0.0036540
 385.0 0.0042110
 387.5 0.0041190
 390.0 0.0043490
 392.5 0.0045710
 395.0 0.0041340
 397.5 0.0040630
 400.0 0.0049930
 402.5 0.0055770
 405.0 0.0055770
 407.5 0.0048310
 410.0 0.0040220
 412.5 0.0045370
 415.0 0.0052000
 417.5 0.0053310
 420.0 0.0053260
 422.5 0.0052820
 425.0 0.0052140
 427.5 0.0051240
 430.0 0.0047730
 432.5 0.0039770
 435.0 0.0037360
 437.5 0.0043570
 440.0 0.0047640
 442.5 0.0048710
 445.0 0.0048260
 447.5 0.0047600
 450.0 0.0047770
 452.5 0.0047290
 455.0 0.0046300
 457.5 0.0045750
 460.0 0.0045500
 462.5 0.0045250
 465.0 0.0044920
 467.5 0.0044420
 470.0 0.0044060
 472.5 0.0043610
 475.0 0.0042850
 477.5 0.0042150
 480.0 0.0041460
 482.5 0.0038480
 485.0 0.0031590
 487.5 0.0030420
 490.0 0.0034960
 492.5 0.0037430
 495.0 0.0037980
 497.5 0.0037980
 500.0 0.0037740
 502.5 0.0037260
 505.0 0.0036780
 507.5 0.0036480
 510.0 0.0036410
 512.5 0.0035780
 515.0 0.0035160
 517.5 0.0034640
 520.0 0.0034230
 522.5 0.0034040
 525.0 0.0033570
 527.5 0.0033080
 530.0 0.0033080
 532.5 0.0032840
 535.0 0.0032600
 537.5 0.0032270
 540.0 0.0031680
 542.5 0.0031480
 545.0 0.0031390
 547.5 0.0031070
 550.0 0.0030930
 552.5 0.0030650
 555.0 0.0030140
 557.5 0.0029680
 560.0 0.0029210
 562.5 0.0028890
 565.0 0.0028500
 567.5 0.0028160
 570.0 0.0027800
 572.5 0.0027640
 575.0 0.0027440
 577.5 0.0027290
 580.0 0.0026990
 582.5 0.0026670
 585.0 0.0026470
 587.5 0.0026280
 590.0 0.0026060
 592.5 0.0025870
 595.0 0.0025590
 597.5 0.0025140
 600.0 0.0024770
 602.5 0.0024590
 605.0 0.0024320
 607.5 0.0024050
 610.0 0.0023700
 612.5 0.0023440
 615.0 0.0023120
 617.5 0.0022870
 620.0 0.0022700
 622.5 0.0022450
 625.0 0.0022180
 627.5 0.0022120
 630.0 0.0021880
 632.5 0.0021400
 635.0 0.0021220
 637.5 0.0021070
 640.0 0.0020950
 642.5 0.0020760
 645.0 0.0020570
 647.5 0.0020300
 650.0 0.0019860
 652.5 0.0018830
 655.0 0.0017120
 657.5 0.0016670
 660.0 0.0018180
 662.5 0.0019210
 665.0 0.0019430
 667.5 0.0019180
 670.0 0.0018850
 672.5 0.0018640
 675.0 0.0018450
 677.5 0.0018250
 680.0 0.0018000
 682.5 0.0017860
 685.0 0.0017780
 687.5 0.0017510
 690.0 0.0017230
 692.5 0.0017030
 695.0 0.0016730
 697.5 0.0016400
 700.0 0.0016130
 702.5 0.0016030
 705.0 0.0015970
 707.5 0.0015720
 710.0 0.0015360
 712.5 0.0015190
 715.0 0.0015080
 717.5 0.0014630
 720.0 0.0014310
 722.5 0.0014350
 725.0 0.0014340
 727.5 0.0014090
 730.0 0.0013870
 732.5 0.0013880
 735.0 0.0013660

