# nm  Flux(W/m2/m) for star HR 4819 from file: table5.dat
 320.0 0.0040900
 322.5 0.0041000
 325.0 0.0041200
 327.5 0.0041500
 330.0 0.0041700
 332.5 0.0041700
 335.0 0.0041600
 337.5 0.0041800
 340.0 0.0042000
 342.5 0.0042300
 345.0 0.0042200
 347.5 0.0042200
 350.0 0.0042200
 352.5 0.0042300
 355.0 0.0042200
 357.5 0.0041900
 360.0 0.0041500
 362.5 0.0041100
 365.0 0.0040800
 367.5 0.0041600
 370.0 0.0044500
 372.5 0.0050600
 375.0 0.0059500
 377.5 0.0069300
 380.0 0.0079100
 382.5 0.0086100
 385.0 0.0091900
 387.5 0.0096700
 390.0 0.0100600
 392.5 0.0101300
 395.0 0.0099500
 397.5 0.0101200
 400.0 0.0107000
 402.5 0.0110100
 405.0 0.0105900
 407.5 0.0097100
 410.0 0.0093300
 412.5 0.0096600
 415.0 0.0101700
 417.5 0.0103900
 420.0 0.0102700
 422.5 0.0101000
 425.0 0.0098700
 427.5 0.0093200
 430.0 0.0085600
 432.5 0.0079800
 435.0 0.0080600
 437.5 0.0085400
 440.0 0.0089000
 442.5 0.0089300
 445.0 0.0087500
 447.5 0.0085900
 450.0 0.0084400
 452.5 0.0083100
 455.0 0.0081800
 457.5 0.0080800
 460.0 0.0079900
 462.5 0.0079400
 465.0 0.0078800
 467.5 0.0078100
 470.0 0.0077300
 472.5 0.0076300
 475.0 0.0075200
 477.5 0.0072800
 480.0 0.0068000
 482.5 0.0062100
 485.0 0.0058700
 487.5 0.0060300
 490.0 0.0064300
 492.5 0.0067000
 495.0 0.0067100
 497.5 0.0065800
 500.0 0.0065200
 502.5 0.0063800
 505.0 0.0062700
 507.5 0.0062500
 510.0 0.0061100
 512.5 0.0060100
 515.0 0.0059600
 517.5 0.0057900
 520.0 0.0057300
 522.5 0.0056900
 525.0 0.0056500
 527.5 0.0055900
 530.0 0.0055400
 532.5 0.0055200
 535.0 0.0054000
 537.5 0.0053200
 540.0 0.0052600
 542.5 0.0051600
 545.0 0.0051600
 547.5 0.0051100
 550.0 0.0050100
 552.5 0.0049600
 555.0 0.0048200
 557.5 0.0047800
 560.0 0.0047200
 562.5 0.0046200
 565.0 0.0046000
 567.5 0.0045200
 570.0 0.0044800
 572.5 0.0044200
 575.0 0.0043500
 577.5 0.0042900
 580.0 0.0042200
 582.5 0.0041300
 585.0 0.0040600
 587.5 0.0040700
 590.0 0.0040400
 592.5 0.0039600
 595.0 0.0039600
 597.5 0.0039100
 600.0 0.0038800
 602.5 0.0038000
 605.0 0.0038100
 607.5 0.0037500
 610.0 0.0036000
 612.5 0.0036000
 615.0 0.0035700
 617.5 0.0034800
 620.0 0.0034900
 622.5 0.0034500
 625.0 0.0033700
 627.5 0.0033500
 630.0 0.0033300
 632.5 0.0032800
 635.0 0.0032800
 637.5 0.0032000
 640.0 0.0031400
 642.5 0.0031200
 645.0 0.0031300
 647.5 0.0030700
 650.0 0.0028300
 652.5 0.0026800
 655.0 0.0026000
 657.5 0.0026300
 660.0 0.0027300
 662.5 0.0028700
 665.0 0.0028700
 667.5 0.0028400
 670.0 0.0028200
 672.5 0.0028100
 675.0 0.0027400
 677.5 0.0026600
 680.0 0.0026600
 682.5 0.0026500
 685.0 0.0026400
 687.5 0.0025800
 690.0 0.0025200
 692.5 0.0025000
 695.0 0.0025000
 697.5 0.0024300
 700.0 0.0024200
 702.5 0.0024000
 705.0 0.0023100
 707.5 0.0023100
 710.0 0.0022900
 712.5 0.0022600
 715.0 0.0022300
 717.5 0.0022300
 720.0 0.0021600
 722.5 0.0021400
 725.0 0.0021200
 727.5 0.0020900
 730.0 0.0020600
 732.5 0.0020500
 735.0 0.0020100
 737.5 0.0020000
 740.0 0.0020100
 742.5 0.0019800
 745.0 0.0019300
 747.5 0.0019100
 750.0 0.0018500
 752.5 0.0019100
 755.0 0.0019200
 757.5 0.0018700
 760.0 0.0018900
 762.5 0.0018200
 765.0 0.0018200
 767.5 0.0017600
 770.0 0.0017700
 772.5 0.0017100
 775.0 0.0017500
 777.5 0.0017100
 780.0 0.0017200
 782.5 0.0017000
 785.0 0.0017000
 787.5 0.0016900
 790.0 0.0016300
 792.5 0.0016400
 795.0 0.0016300
 797.5 0.0016300
 800.0 0.0015900
 802.5 0.0015400
 805.0 0.0015100
 807.5 0.0015200
 810.0 0.0015200
 812.5 0.0015200
 815.0 0.0015100
 817.5 0.0014900
 820.0 0.0015000
 822.5 0.0014900
 825.0 0.0014300
 827.5 0.0014300
 830.0 0.0014300
 832.5 0.0014000
 835.0 0.0013800
 837.5 0.0013800
 840.0 0.0014000
 842.5 0.0013700
 845.0 0.0013300
 847.5 0.0013400
 850.0 0.0013000
 852.5 0.0013300
 855.0 0.0013300
 857.5 0.0012900
 860.0 0.0013000
 862.5 0.0013000
 865.0 0.0013100
 867.5 0.0013100
 870.0 0.0013100
 872.5 0.0013100
 875.0 0.0012800
 877.5 0.0013200
 880.0 0.0013000
 882.5 0.0012800
 885.0 0.0012600
 887.5 0.0012800
 890.0 0.0012800
 892.5 0.0012800
 895.0 0.0012500
 897.5 0.0011400
 900.0 0.0011100
 902.5 0.0011000
 905.0 0.0011400
 907.5 0.0012200
 910.0 0.0011800
 912.5 0.0012000
 915.0 0.0011700
 917.5 0.0010800
 920.0 0.0010400
 922.5 0.0010600
 925.0 0.0010700
 927.5 0.0011600
 930.0 0.0011500
 932.5 0.0011600
 935.0 0.0011400
 937.5 0.0010400
 940.0 0.0010700
 942.5 0.0010600
 945.0 0.0010600
 947.5 0.0010300
 950.0 0.0009500
 952.5 0.0009200
 955.0 0.0009000
 957.5 0.0009200
 960.0 0.0009700
 962.5 0.0009900
 965.0 0.0010000
 967.5 0.0009900
 970.0 0.0010300
 972.5 0.0010200
 975.0 0.0009600
 977.5 0.0009900
 980.0 0.0009800
 982.5 0.0009800
 985.0 0.0010000
 987.5 0.0009800
 990.0 0.0009700
 992.5 0.0009600
 995.0 0.0009500
 997.5 0.0009500
1000.0 0.0009000
1002.5 0.0008500
1005.0 0.0008400
1007.5 0.0008400
1010.0 0.0008900
1012.5 0.0009300
1015.0 0.0009000
1017.5 0.0009000
1020.0 0.0008900
1022.5 0.0008800
1025.0 0.0008700
1027.5 0.0008800
1030.0 0.0009000
1032.5 0.0008900
1035.0 0.0009000
1037.5 0.0009100
1040.0 0.0008600
1042.5 0.0008700
1045.0 0.0008400
1047.5 0.0008600
1050.0 0.0008300
1052.5 0.0008100
1055.0 0.0008400
1057.5 0.0008200
1060.0 0.0008300
1062.5 0.0008100
1065.0 0.0008000
1067.5 0.0007800
1070.0 0.0007900
1072.5 0.0007700
1075.0 0.0007500
1077.5 0.0007800
1080.0 0.0007600

# nm  Flux(W/m2/m) for star HR 4819 from file: table6.dat
 320.0 0.0040900
 322.5 0.0041200
 325.0 0.0040700
 327.5 0.0041700
 330.0 0.0042000
 332.5 0.0042000
 335.0 0.0041200
 337.5 0.0041400
 340.0 0.0042400
 342.5 0.0042700
 345.0 0.0041700
 347.5 0.0042400
 350.0 0.0041900
 352.5 0.0042700
 355.0 0.0042300
 357.5 0.0042100
 360.0 0.0041300
 362.5 0.0041000
 365.0 0.0041100
 367.5 0.0039700
 370.0 0.0041400
 372.5 0.0049100
 375.0 0.0057700
 377.5 0.0070100
 380.0 0.0082200
 382.5 0.0084400
 385.0 0.0098100
 387.5 0.0090400
 390.0 0.0100600
 392.5 0.0117800
 395.0 0.0088100
 397.5 0.0090100
 400.0 0.0115000
 402.5 0.0116300
 405.0 0.0116500
 407.5 0.0088600
 410.0 0.0078300
 412.5 0.0102000
 415.0 0.0107200
 417.5 0.0104400
 420.0 0.0102600
 422.5 0.0100400
 425.0 0.0099600
 427.5 0.0099100
 430.0 0.0088400
 432.5 0.0065500
 435.0 0.0076300
 437.5 0.0093200
 440.0 0.0090900
 442.5 0.0089500
 445.0 0.0087300
 447.5 0.0085800
 450.0 0.0084300
 452.5 0.0083100
 455.0 0.0081900
 457.5 0.0080500
 460.0 0.0079300
 462.5 0.0079700
 465.0 0.0079000
 467.5 0.0077800
 470.0 0.0077600
 472.5 0.0076600
 475.0 0.0075200
 477.5 0.0073700
 480.0 0.0072900
 482.5 0.0061100
 485.0 0.0048100
 487.5 0.0059900
 490.0 0.0069100
 492.5 0.0068100
 495.0 0.0067500
 497.5 0.0065900
 500.0 0.0063800
 502.5 0.0064000
 505.0 0.0063400
 507.5 0.0063300
 510.0 0.0061700
 512.5 0.0060500
 515.0 0.0059500
 517.5 0.0058700
 520.0 0.0058100
 522.5 0.0056500
 525.0 0.0056000
 527.5 0.0056000
 530.0 0.0055000
 532.5 0.0054100
 535.0 0.0054600
 537.5 0.0054000
 540.0 0.0053100
 542.5 0.0052500
 545.0 0.0051600
 547.5 0.0051000
 550.0 0.0050600
 552.5 0.0049800
 555.0 0.0048400
 557.5 0.0048400
 560.0 0.0047600
 562.5 0.0046700
 565.0 0.0045900
 567.5 0.0045200
 570.0 0.0045200
 572.5 0.0044700
 575.0 0.0044200
 577.5 0.0043700
 580.0 0.0042100
 582.5 0.0040800
 585.0 0.0040600
 587.5 0.0040500
 590.0 0.0039900
 592.5 0.0040200
 595.0 0.0039700
 597.5 0.0039200
 600.0 0.0037900
 602.5 0.0038200
 605.0 0.0037700
 607.5 0.0037500
 610.0 0.0036800
 612.5 0.0036100
 615.0 0.0035200
 617.5 0.0035000
 620.0 0.0034800
 622.5 0.0034600
 625.0 0.0033900
 627.5 0.0032800
 630.0 0.0032800
 632.5 0.0032900
 635.0 0.0031800
 637.5 0.0032000
 640.0 0.0031500
 642.5 0.0031100
 645.0 0.0030900
 647.5 0.0030700
 650.0 0.0029800
 652.5 0.0027600
 655.0 0.0022400
 657.5 0.0023800
 660.0 0.0028100
 662.5 0.0028500
 665.0 0.0028300
 667.5 0.0028000
 670.0 0.0027500
 672.5 0.0027100
 675.0 0.0026700
 677.5 0.0026600
 680.0 0.0026100
 682.5 0.0025800
 685.0 0.0026100
 687.5 0.0024600
 690.0 0.0025800
 692.5 0.0024700
 695.0 0.0024600
 697.5 0.0024500
 700.0 0.0023900
 702.5 0.0023200
 705.0 0.0023200
 707.5 0.0023100
 710.0 0.0022500
 712.5 0.0022300
 715.0 0.0022300
 717.5 0.0021600
 720.0 0.0021000
 722.5 0.0021400
 725.0 0.0021300
 727.5 0.0020700
 730.0 0.0020500
 732.5 0.0020800
 735.0 0.0020200

