# nm  Flux(W/m2/m) for star HR 5531 from file: table5.dat
 320.0 0.0018900
 322.5 0.0018950
 325.0 0.0019210
 327.5 0.0019570
 330.0 0.0019770
 332.5 0.0019810
 335.0 0.0019770
 337.5 0.0019820
 340.0 0.0019930
 342.5 0.0020080
 345.0 0.0020190
 347.5 0.0020400
 350.0 0.0020630
 352.5 0.0020850
 355.0 0.0020890
 357.5 0.0020760
 360.0 0.0020630
 362.5 0.0020740
 365.0 0.0021030
 367.5 0.0021460
 370.0 0.0022260
 372.5 0.0023830
 375.0 0.0026280
 377.5 0.0029240
 380.0 0.0032420
 382.5 0.0035250
 385.0 0.0037740
 387.5 0.0039880
 390.0 0.0041420
 392.5 0.0042070
 395.0 0.0042270
 397.5 0.0043850
 400.0 0.0047210
 402.5 0.0049800
 405.0 0.0049070
 407.5 0.0045710
 410.0 0.0043490
 412.5 0.0044380
 415.0 0.0047080
 417.5 0.0049160
 420.0 0.0049840
 422.5 0.0049610
 425.0 0.0048840
 427.5 0.0046690
 430.0 0.0043050
 432.5 0.0039590
 435.0 0.0038620
 437.5 0.0040440
 440.0 0.0043050
 442.5 0.0044630
 445.0 0.0044870
 447.5 0.0044630
 450.0 0.0044220
 452.5 0.0043610
 455.0 0.0043010
 457.5 0.0042580
 460.0 0.0042380
 462.5 0.0042270
 465.0 0.0042110
 467.5 0.0041840
 470.0 0.0041530
 472.5 0.0041080
 475.0 0.0040400
 477.5 0.0039340
 480.0 0.0037390
 482.5 0.0034550
 485.0 0.0031890
 487.5 0.0031100
 490.0 0.0032420
 492.5 0.0034360
 495.0 0.0035550
 497.5 0.0035680
 500.0 0.0035380
 502.5 0.0035060
 505.0 0.0034770
 507.5 0.0034510
 510.0 0.0034610
 512.5 0.0034070
 515.0 0.0033420
 517.5 0.0032930
 520.0 0.0032720
 522.5 0.0032300
 525.0 0.0031920
 527.5 0.0031560
 530.0 0.0031300
 532.5 0.0030990
 535.0 0.0030650
 537.5 0.0030510
 540.0 0.0030260
 542.5 0.0029900
 545.0 0.0029570
 547.5 0.0029300
 550.0 0.0028950
 552.5 0.0028600
 555.0 0.0028240
 557.5 0.0027800
 560.0 0.0027440
 562.5 0.0027190
 565.0 0.0026840
 567.5 0.0026500
 570.0 0.0026160
 572.5 0.0025970
 575.0 0.0025700
 577.5 0.0025470
 580.0 0.0025260
 582.5 0.0025100
 585.0 0.0024820
 587.5 0.0024620
 590.0 0.0024430
 592.5 0.0024280
 595.0 0.0024030
 597.5 0.0023700
 600.0 0.0023400
 602.5 0.0023100
 605.0 0.0022930
 607.5 0.0022760
 610.0 0.0022410
 612.5 0.0022140
 615.0 0.0021900
 617.5 0.0021740
 620.0 0.0021560
 622.5 0.0021440
 625.0 0.0021220
 627.5 0.0020890
 630.0 0.0020590
 632.5 0.0020380
 635.0 0.0020170
 637.5 0.0020030
 640.0 0.0019730
 642.5 0.0019530
 645.0 0.0019250
 647.5 0.0018760
 650.0 0.0017770
 652.5 0.0016660
 655.0 0.0015790
 657.5 0.0015720
 660.0 0.0016410
 662.5 0.0017220
 665.0 0.0017570
 667.5 0.0017550
 670.0 0.0017380
 672.5 0.0017170
 675.0 0.0016950
 677.5 0.0016720
 680.0 0.0016550
 682.5 0.0016470
 685.0 0.0016430
 687.5 0.0016260
 690.0 0.0016110
 692.5 0.0015970
 695.0 0.0015760
 697.5 0.0015560
 700.0 0.0015400
 702.5 0.0015140
 705.0 0.0014940
 707.5 0.0014850
 710.0 0.0014750
 712.5 0.0014680
 715.0 0.0014600
 717.5 0.0014440
 720.0 0.0014190
 722.5 0.0014030
 725.0 0.0013920
 727.5 0.0013830
 730.0 0.0013590
 732.5 0.0013390
 735.0 0.0013210
 737.5 0.0013010
 740.0 0.0012350
 742.5 0.0012250
 745.0 0.0012210
 747.5 0.0012180
 750.0 0.0012150
 752.5 0.0012110
 755.0 0.0012080
 757.5 0.0012040
 760.0 0.0012000
 762.5 0.0011530
 765.0 0.0011500
 767.5 0.0011470
 770.0 0.0011440
 772.5 0.0011410
 775.0 0.0011390
 777.5 0.0011170
 780.0 0.0011160
 782.5 0.0011080
 785.0 0.0011000
 787.5 0.0010880
 790.0 0.0010820
 792.5 0.0010770
 795.0 0.0010580
 797.5 0.0010600
 800.0 0.0010510
 802.5 0.0010300
 805.0 0.0010210
 807.5 0.0010140
 810.0 0.0009860
 812.5 0.0009840
 815.0 0.0009760
 817.5 0.0009510
 820.0 0.0009480
 822.5 0.0009610
 825.0 0.0009390
 827.5 0.0009590
 830.0 0.0009380
 832.5 0.0009200
 835.0 0.0009290
 837.5 0.0009150
 840.0 0.0009190
 842.5 0.0008950
 845.0 0.0008940
 847.5 0.0009040
 850.0 0.0008950
 852.5 0.0008810
 855.0 0.0008910
 857.5 0.0008840
 860.0 0.0008800
 862.5 0.0008750
 865.0 0.0008570
 867.5 0.0008500
 870.0 0.0008460
 872.5 0.0008400
 875.0 0.0008180
 877.5 0.0008200
 880.0 0.0008530
 882.5 0.0008370
 885.0 0.0008220
 887.5 0.0007960
 890.0 0.0008070
 892.5 0.0008350
 895.0 0.0008030
 897.5 0.0007480
 900.0 0.0007290
 902.5 0.0007400
 905.0 0.0007620
 907.5 0.0007910
 910.0 0.0007730
 912.5 0.0007660
 915.0 0.0007510
 917.5 0.0007130
 920.0 0.0006970
 922.5 0.0006830
 925.0 0.0006920
 927.5 0.0007280
 930.0 0.0007350
 932.5 0.0007250
 935.0 0.0007170
 937.5 0.0007540
 940.0 0.0007240
 942.5 0.0007370
 945.0 0.0007120
 947.5 0.0006820
 950.0 0.0006470
 952.5 0.0006380
 955.0 0.0006360
 957.5 0.0006460
 960.0 0.0006470
 962.5 0.0006690
 965.0 0.0006590
 967.5 0.0006530
 970.0 0.0006660
 972.5 0.0006530
 975.0 0.0006370
 977.5 0.0006410
 980.0 0.0006470
 982.5 0.0006570
 985.0 0.0006430
 987.5 0.0006420
 990.0 0.0006340
 992.5 0.0006390
 995.0 0.0006210
 997.5 0.0006030
1000.0 0.0005840
1002.5 0.0005520
1005.0 0.0005510
1007.5 0.0005700
1010.0 0.0005790
1012.5 0.0006000
1015.0 0.0005920
1017.5 0.0006030
1020.0 0.0005870
1022.5 0.0005930
1025.0 0.0006040
1027.5 0.0005940
1030.0 0.0005890
1032.5 0.0005770
1035.0 0.0005780
1037.5 0.0005670
1040.0 0.0005560
1042.5 0.0005650
1045.0 0.0005550
1047.5 0.0005580
1050.0 0.0005540
1052.5 0.0005430
1055.0 0.0005490
1057.5 0.0005410
1060.0 0.0005410
1062.5 0.0005150
1065.0 0.0005350
1067.5 0.0005220
1070.0 0.0005130
1072.5 0.0005180
1075.0 0.0005140
1077.5 0.0005060
1080.0 0.0004920

# nm  Flux(W/m2/m) for star HR 5531 from file: table6.dat
 320.0 0.0018540
 322.5 0.0018910
 325.0 0.0018950
 327.5 0.0019820
 330.0 0.0020030
 332.5 0.0019840
 335.0 0.0019520
 337.5 0.0019880
 340.0 0.0019950
 342.5 0.0020100
 345.0 0.0020060
 347.5 0.0020460
 350.0 0.0020470
 352.5 0.0020970
 355.0 0.0021260
 357.5 0.0020850
 360.0 0.0020080
 362.5 0.0020550
 365.0 0.0021380
 367.5 0.0021200
 370.0 0.0021540
 372.5 0.0023100
 375.0 0.0025730
 377.5 0.0029480
 380.0 0.0032660
 382.5 0.0034930
 385.0 0.0039190
 387.5 0.0039230
 390.0 0.0041230
 392.5 0.0045670
 395.0 0.0040330
 397.5 0.0039190
 400.0 0.0048390
 402.5 0.0054000
 405.0 0.0053020
 407.5 0.0044100
 410.0 0.0037840
 412.5 0.0043490
 415.0 0.0049570
 417.5 0.0050070
 420.0 0.0050030
 422.5 0.0049700
 425.0 0.0049390
 427.5 0.0048660
 430.0 0.0044790
 432.5 0.0035940
 435.0 0.0034290
 437.5 0.0041500
 440.0 0.0044870
 442.5 0.0045250
 445.0 0.0045000
 447.5 0.0044550
 450.0 0.0044460
 452.5 0.0043770
 455.0 0.0042780
 457.5 0.0042110
 460.0 0.0042420
 462.5 0.0042500
 465.0 0.0042070
 467.5 0.0041760
 470.0 0.0041690
 472.5 0.0041340
 475.0 0.0040590
 477.5 0.0039410
 480.0 0.0038620
 482.5 0.0036140
 485.0 0.0029000
 487.5 0.0027900
 490.0 0.0033300
 492.5 0.0035580
 495.0 0.0036040
 497.5 0.0035940
 500.0 0.0035420
 502.5 0.0034770
 505.0 0.0034670
 507.5 0.0034960
 510.0 0.0034140
 512.5 0.0033450
 515.0 0.0033110
 517.5 0.0032360
 520.0 0.0032390
 522.5 0.0032210
 525.0 0.0031800
 527.5 0.0031450
 530.0 0.0031160
 532.5 0.0030560
 535.0 0.0030760
 537.5 0.0030850
 540.0 0.0030280
 542.5 0.0029620
 545.0 0.0029240
 547.5 0.0029080
 550.0 0.0029130
 552.5 0.0028580
 555.0 0.0027980
 557.5 0.0027870
 560.0 0.0027470
 562.5 0.0027160
 565.0 0.0026840
 567.5 0.0026500
 570.0 0.0026230
 572.5 0.0025730
 575.0 0.0025520
 577.5 0.0025630
 580.0 0.0025120
 582.5 0.0025050
 585.0 0.0025140
 587.5 0.0024680
 590.0 0.0024230
 592.5 0.0024230
 595.0 0.0024010
 597.5 0.0023880
 600.0 0.0023360
 602.5 0.0023010
 605.0 0.0022910
 607.5 0.0022800
 610.0 0.0022660
 612.5 0.0022390
 615.0 0.0021920
 617.5 0.0021920
 620.0 0.0021660
 622.5 0.0021580
 625.0 0.0021260
 627.5 0.0020890
 630.0 0.0020550
 632.5 0.0020440
 635.0 0.0020250
 637.5 0.0020250
 640.0 0.0019880
 642.5 0.0019390
 645.0 0.0019340
 647.5 0.0019410
 650.0 0.0018100
 652.5 0.0017170
 655.0 0.0014830
 657.5 0.0014510
 660.0 0.0016950
 662.5 0.0018030
 665.0 0.0018060
 667.5 0.0017700
 670.0 0.0017570
 672.5 0.0017430
 675.0 0.0017050
 677.5 0.0016720
 680.0 0.0016520
 682.5 0.0016580
 685.0 0.0016730
 687.5 0.0015790
 690.0 0.0016440
 692.5 0.0016220
 695.0 0.0015860
 697.5 0.0015650
 700.0 0.0015530
 702.5 0.0015040
 705.0 0.0015090
 707.5 0.0014890
 710.0 0.0014720
 712.5 0.0014700
 715.0 0.0014890
 717.5 0.0014720
 720.0 0.0013890
 722.5 0.0014020
 725.0 0.0014180
 727.5 0.0013980
 730.0 0.0013650
 732.5 0.0013530
 735.0 0.0013300

