# nm  Flux(W/m2/m) for star HR 6175 from file: table5.dat
 320.0 0.0102100
 322.5 0.0101300
 325.0 0.0099800
 327.5 0.0098100
 330.0 0.0096200
 332.5 0.0094800
 335.0 0.0093800
 337.5 0.0093200
 340.0 0.0092500
 342.5 0.0091900
 345.0 0.0091100
 347.5 0.0090300
 350.0 0.0089200
 352.5 0.0087800
 355.0 0.0086300
 357.5 0.0085000
 360.0 0.0083700
 362.5 0.0082600
 365.0 0.0081400
 367.5 0.0080000
 370.0 0.0078400
 372.5 0.0077000
 375.0 0.0076100
 377.5 0.0075400
 380.0 0.0074700
 382.5 0.0074000
 385.0 0.0073400
 387.5 0.0072800
 390.0 0.0072300
 392.5 0.0071400
 395.0 0.0070200
 397.5 0.0068900
 400.0 0.0068000
 402.5 0.0067200
 405.0 0.0065900
 407.5 0.0064400
 410.0 0.0063200
 412.5 0.0062900
 415.0 0.0063000
 417.5 0.0062800
 420.0 0.0062200
 422.5 0.0061500
 425.0 0.0060600
 427.5 0.0059400
 430.0 0.0057700
 432.5 0.0056000
 435.0 0.0055000
 437.5 0.0054700
 440.0 0.0054400
 442.5 0.0054000
 445.0 0.0053200
 447.5 0.0052500
 450.0 0.0052000
 452.5 0.0051600
 455.0 0.0051100
 457.5 0.0050500
 460.0 0.0049700
 462.5 0.0048800
 465.0 0.0047900
 467.5 0.0047300
 470.0 0.0047100
 472.5 0.0047100
 475.0 0.0046900
 477.5 0.0046500
 480.0 0.0045800
 482.5 0.0044900
 485.0 0.0043900
 487.5 0.0043300
 490.0 0.0043000
 492.5 0.0042900
 495.0 0.0042700
 497.5 0.0042300
 500.0 0.0041800
 502.5 0.0041300
 505.0 0.0041000
 507.5 0.0040700
 510.0 0.0040500
 512.5 0.0040000
 515.0 0.0039800
 517.5 0.0039500
 520.0 0.0039100
 522.5 0.0038800
 525.0 0.0038600
 527.5 0.0038000
 530.0 0.0037500
 532.5 0.0037100
 535.0 0.0036700
 537.5 0.0036100
 540.0 0.0035700
 542.5 0.0035300
 545.0 0.0034700
 547.5 0.0034200
 550.0 0.0033900
 552.5 0.0033600
 555.0 0.0033100
 557.5 0.0032400
 560.0 0.0032100
 562.5 0.0031800
 565.0 0.0031200
 567.5 0.0030700
 570.0 0.0030300
 572.5 0.0030100
 575.0 0.0029600
 577.5 0.0029300
 580.0 0.0028800
 582.5 0.0028600
 585.0 0.0028300
 587.5 0.0027800
 590.0 0.0027500
 592.5 0.0027500
 595.0 0.0027500
 597.5 0.0027200
 600.0 0.0026900
 602.5 0.0026800
 605.0 0.0026400
 607.5 0.0026100
 610.0 0.0025800
 612.5 0.0025500
 615.0 0.0025300
 617.5 0.0024800
 620.0 0.0024400
 622.5 0.0024000
 625.0 0.0023900
 627.5 0.0023600
 630.0 0.0023200
 632.5 0.0023100
 635.0 0.0023000
 637.5 0.0022800
 640.0 0.0022500
 642.5 0.0022200
 645.0 0.0021900
 647.5 0.0021500
 650.0 0.0020700
 652.5 0.0020200
 655.0 0.0019900
 657.5 0.0020000
 660.0 0.0019900
 662.5 0.0020000
 665.0 0.0019800
 667.5 0.0019500
 670.0 0.0019300
 672.5 0.0019300
 675.0 0.0019100
 677.5 0.0018900
 680.0 0.0018700
 682.5 0.0018500
 685.0 0.0018300
 687.5 0.0018300
 690.0 0.0018000
 692.5 0.0017700
 695.0 0.0017500
 697.5 0.0017300
 700.0 0.0017200
 702.5 0.0016800
 705.0 0.0016700
 707.5 0.0016500
 710.0 0.0016300
 712.5 0.0016100
 715.0 0.0015900
 717.5 0.0015800
 720.0 0.0015500
 722.5 0.0015300
 725.0 0.0015200
 727.5 0.0015000
 730.0 0.0014900
 732.5 0.0014700
 735.0 0.0014500
 737.5 0.0014300
 740.0 0.0014400
 742.5 0.0014000
 745.0 0.0014200
 747.5 0.0014100
 750.0 0.0013800
 752.5 0.0014500
 755.0 0.0013500
 757.5 0.0013500
 760.0 0.0013600
 762.5 0.0013800
 765.0 0.0013400
 767.5 0.0013500
 770.0 0.0013200
 772.5 0.0014000
 775.0 0.0013400
 777.5 0.0013200
 780.0 0.0012800
 782.5 0.0012400
 785.0 0.0012500
 787.5 0.0012200
 790.0 0.0012100
 792.5 0.0012100
 795.0 0.0011900
 797.5 0.0011900
 800.0 0.0011700
 802.5 0.0011600
 805.0 0.0011700
 807.5 0.0011600
 810.0 0.0011200
 812.5 0.0011400
 815.0 0.0011100
 817.5 0.0011200
 820.0 0.0011000
 822.5 0.0011000
 825.0 0.0010900
 827.5 0.0010700
 830.0 0.0010400
 832.5 0.0010100
 835.0 0.0010300
 837.5 0.0010500
 840.0 0.0010500
 842.5 0.0010500
 845.0 0.0010300
 847.5 0.0010200
 850.0 0.0010100
 852.5 0.0009900
 855.0 0.0010100
 857.5 0.0010200
 860.0 0.0010000
 862.5 0.0010100
 865.0 0.0009600
 867.5 0.0009600
 870.0 0.0009700
 872.5 0.0009500
 875.0 0.0009400
 877.5 0.0009200
 880.0 0.0009300
 882.5 0.0009400
 885.0 0.0009000
 887.5 0.0008700
 890.0 0.0008800
 892.5 0.0008700
 895.0 0.0008400
 897.5 0.0008200
 900.0 0.0008200
 902.5 0.0008300
 905.0 0.0008300
 907.5 0.0007900
 910.0 0.0007700
 912.5 0.0007700
 915.0 0.0008000
 917.5 0.0008100
 920.0 0.0008300
 922.5 0.0008200
 925.0 0.0007800
 927.5 0.0007300
 930.0 0.0007200
 932.5 0.0007500
 935.0 0.0007600
 937.5 0.0007700
 940.0 0.0007700
 942.5 0.0007600
 945.0 0.0007300
 947.5 0.0007100
 950.0 0.0007000
 952.5 0.0006900
 955.0 0.0006800
 957.5 0.0006700
 960.0 0.0006500
 962.5 0.0006800
 965.0 0.0006700
 967.5 0.0006600
 970.0 0.0006400
 972.5 0.0006500
 975.0 0.0006500
 977.5 0.0006300
 980.0 0.0006400
 982.5 0.0006500
 985.0 0.0006400
 987.5 0.0006300
 990.0 0.0006200
 992.5 0.0006300
 995.0 0.0006400
 997.5 0.0006500
1000.0 0.0006200
1002.5 0.0006100
1005.0 0.0006100
1007.5 0.0006000
1010.0 0.0005900
1012.5 0.0006000
1015.0 0.0005900
1017.5 0.0005900
1020.0 0.0005900
1022.5 0.0005900
1025.0 0.0005700
1027.5 0.0005800
1030.0 0.0005600
1032.5 0.0005700
1035.0 0.0005700
1037.5 0.0005600
1040.0 0.0005600
1042.5 0.0005300
1045.0 0.0005400
1047.5 0.0005300
1050.0 0.0005500
1052.5 0.0005400
1055.0 0.0005100
1057.5 0.0005100
1060.0 0.0005100
1062.5 0.0005000
1065.0 0.0005000
1067.5 0.0005000
1070.0 0.0005000
1072.5 0.0005000
1075.0 0.0004900
1077.5 0.0004800
1080.0 0.0004800

# nm  Flux(W/m2/m) for star HR 6175 from file: table6.dat
 320.0 0.0100800
 322.5 0.0102800
 325.0 0.0100400
 327.5 0.0097800
 330.0 0.0095600
 332.5 0.0095000
 335.0 0.0093200
 337.5 0.0093200
 340.0 0.0092800
 342.5 0.0091900
 345.0 0.0090700
 347.5 0.0090900
 350.0 0.0089500
 352.5 0.0087700
 355.0 0.0086100
 357.5 0.0084900
 360.0 0.0083600
 362.5 0.0082400
 365.0 0.0081700
 367.5 0.0080500
 370.0 0.0078300
 372.5 0.0076200
 375.0 0.0075800
 377.5 0.0075800
 380.0 0.0074900
 382.5 0.0073400
 385.0 0.0073800
 387.5 0.0072600
 390.0 0.0072300
 392.5 0.0072500
 395.0 0.0070200
 397.5 0.0068000
 400.0 0.0068000
 402.5 0.0067500
 405.0 0.0067100
 407.5 0.0063900
 410.0 0.0061500
 412.5 0.0062900
 415.0 0.0064000
 417.5 0.0063000
 420.0 0.0061800
 422.5 0.0061600
 425.0 0.0061000
 427.5 0.0059800
 430.0 0.0058100
 432.5 0.0055100
 435.0 0.0053900
 437.5 0.0055000
 440.0 0.0054800
 442.5 0.0054300
 445.0 0.0053000
 447.5 0.0052100
 450.0 0.0052300
 452.5 0.0051600
 455.0 0.0051000
 457.5 0.0050700
 460.0 0.0050000
 462.5 0.0048700
 465.0 0.0047400
 467.5 0.0046900
 470.0 0.0047100
 472.5 0.0047200
 475.0 0.0047200
 477.5 0.0046500
 480.0 0.0046000
 482.5 0.0045500
 485.0 0.0043100
 487.5 0.0042500
 490.0 0.0043400
 492.5 0.0043100
 495.0 0.0042600
 497.5 0.0042400
 500.0 0.0041900
 502.5 0.0041200
 505.0 0.0040800
 507.5 0.0040800
 510.0 0.0040500
 512.5 0.0040100
 515.0 0.0039800
 517.5 0.0039300
 520.0 0.0039100
 522.5 0.0038700
 525.0 0.0038200
 527.5 0.0037800
 530.0 0.0037500
 532.5 0.0036800
 535.0 0.0036500
 537.5 0.0036300
 540.0 0.0035600
 542.5 0.0034900
 545.0 0.0034300
 547.5 0.0033900
 550.0 0.0033900
 552.5 0.0033500
 555.0 0.0032900
 557.5 0.0032500
 560.0 0.0032000
 562.5 0.0031800
 565.0 0.0031400
 567.5 0.0030500
 570.0 0.0030200
 572.5 0.0030000
 575.0 0.0029600
 577.5 0.0029100
 580.0 0.0028700
 582.5 0.0028500
 585.0 0.0028200
 587.5 0.0027300
 590.0 0.0027300
 592.5 0.0027500
 595.0 0.0027500
 597.5 0.0027200
 600.0 0.0026900
 602.5 0.0026700
 605.0 0.0026400
 607.5 0.0026100
 610.0 0.0025700
 612.5 0.0025400
 615.0 0.0025200
 617.5 0.0024800
 620.0 0.0024200
 622.5 0.0024200
 625.0 0.0024000
 627.5 0.0023500
 630.0 0.0023200
 632.5 0.0023100
 635.0 0.0022800
 637.5 0.0022700
 640.0 0.0022300
 642.5 0.0022100
 645.0 0.0022000
 647.5 0.0021900
 650.0 0.0020600
 652.5 0.0020200
 655.0 0.0020000
 657.5 0.0020000
 660.0 0.0020500
 662.5 0.0020500
 665.0 0.0020200
 667.5 0.0019500
 670.0 0.0019500
 672.5 0.0019500
 675.0 0.0019300
 677.5 0.0019100
 680.0 0.0018700
 682.5 0.0018600
 685.0 0.0018600
 687.5 0.0018100
 690.0 0.0018500
 692.5 0.0018000
 695.0 0.0017500
 697.5 0.0017300
 700.0 0.0017200
 702.5 0.0017000
 705.0 0.0016600
 707.5 0.0016300
 710.0 0.0016400
 712.5 0.0016400
 715.0 0.0016200
 717.5 0.0015600
 720.0 0.0015100
 722.5 0.0015400
 725.0 0.0015300
 727.5 0.0015000
 730.0 0.0014900
 732.5 0.0014800
 735.0 0.0014400

