# nm  Flux(W/m2/m) for star HR 6580 from file: table5.dat
 320.0 0.0158600
 322.5 0.0157500
 325.0 0.0155000
 327.5 0.0152200
 330.0 0.0148900
 332.5 0.0146400
 335.0 0.0144500
 337.5 0.0142800
 340.0 0.0140700
 342.5 0.0138700
 345.0 0.0136600
 347.5 0.0134900
 350.0 0.0132600
 352.5 0.0129900
 355.0 0.0126900
 357.5 0.0124100
 360.0 0.0121200
 362.5 0.0118700
 365.0 0.0116000
 367.5 0.0113100
 370.0 0.0110600
 372.5 0.0109300
 375.0 0.0109400
 377.5 0.0110000
 380.0 0.0110300
 382.5 0.0110300
 385.0 0.0110500
 387.5 0.0110700
 390.0 0.0110400
 392.5 0.0109300
 395.0 0.0107200
 397.5 0.0104900
 400.0 0.0103800
 402.5 0.0103500
 405.0 0.0102200
 407.5 0.0099200
 410.0 0.0095900
 412.5 0.0094000
 415.0 0.0094000
 417.5 0.0094400
 420.0 0.0094000
 422.5 0.0092900
 425.0 0.0091300
 427.5 0.0088800
 430.0 0.0085200
 432.5 0.0081300
 435.0 0.0078800
 437.5 0.0078100
 440.0 0.0078100
 442.5 0.0077400
 445.0 0.0075800
 447.5 0.0074100
 450.0 0.0073000
 452.5 0.0072100
 455.0 0.0070900
 457.5 0.0069400
 460.0 0.0068100
 462.5 0.0067100
 465.0 0.0066000
 467.5 0.0065200
 470.0 0.0064600
 472.5 0.0063900
 475.0 0.0062900
 477.5 0.0061800
 480.0 0.0060100
 482.5 0.0058100
 485.0 0.0056000
 487.5 0.0054800
 490.0 0.0054600
 492.5 0.0054600
 495.0 0.0054400
 497.5 0.0053700
 500.0 0.0052600
 502.5 0.0052700
 505.0 0.0052100
 507.5 0.0050700
 510.0 0.0049600
 512.5 0.0049300
 515.0 0.0048400
 517.5 0.0048100
 520.0 0.0047200
 522.5 0.0046700
 525.0 0.0045800
 527.5 0.0044800
 530.0 0.0044500
 532.5 0.0043900
 535.0 0.0042900
 537.5 0.0042200
 540.0 0.0041800
 542.5 0.0041200
 545.0 0.0040900
 547.5 0.0039900
 550.0 0.0039300
 552.5 0.0038400
 555.0 0.0037700
 557.5 0.0037400
 560.0 0.0036800
 562.5 0.0035900
 565.0 0.0034900
 567.5 0.0034700
 570.0 0.0033600
 572.5 0.0033700
 575.0 0.0033100
 577.5 0.0032400
 580.0 0.0031700
 582.5 0.0031000
 585.0 0.0030600
 587.5 0.0030500
 590.0 0.0030000
 592.5 0.0029800
 595.0 0.0029400
 597.5 0.0029200
 600.0 0.0028900
 602.5 0.0028500
 605.0 0.0028300
 607.5 0.0027600
 610.0 0.0027300
 612.5 0.0026900
 615.0 0.0026500
 617.5 0.0026000
 620.0 0.0025600
 622.5 0.0025200
 625.0 0.0024900
 627.5 0.0024600
 630.0 0.0024400
 632.5 0.0024100
 635.0 0.0023800
 637.5 0.0023400
 640.0 0.0023100
 642.5 0.0022800
 645.0 0.0022700
 647.5 0.0022300
 650.0 0.0021300
 652.5 0.0020900
 655.0 0.0020400
 657.5 0.0020200
 660.0 0.0020400
 662.5 0.0020500
 665.0 0.0020200
 667.5 0.0020100
 670.0 0.0019900
 672.5 0.0019600
 675.0 0.0019500
 677.5 0.0019100
 680.0 0.0018700
 682.5 0.0018600
 685.0 0.0018500
 687.5 0.0017900
 690.0 0.0017700
 692.5 0.0017500
 695.0 0.0017300
 697.5 0.0017100
 700.0 0.0016800
 702.5 0.0016300
 705.0 0.0016100
 707.5 0.0015600
 710.0 0.0015400
 712.5 0.0015600
 715.0 0.0015200
 717.5 0.0015000
 720.0 0.0014900
 722.5 0.0014600
 725.0 0.0014300
 727.5 0.0014100
 730.0 0.0014000
 732.5 0.0013800
 735.0 0.0013800
 737.5 0.0013500
 740.0 0.0013400
 742.5 0.0013400
 745.0 0.0013000
 747.5 0.0012800
 750.0 0.0012700
 752.5 0.0012600
 755.0 0.0012300
 757.5 0.0012400
 760.0 0.0012200
 762.5 0.0012300
 765.0 0.0012300
 767.5 0.0011900
 770.0 0.0011700
 772.5 0.0011300
 775.0 0.0011200
 777.5 0.0011100
 780.0 0.0011100
 782.5 0.0011000
 785.0 0.0010800
 787.5 0.0010900
 790.0 0.0010600
 792.5 0.0010300
 795.0 0.0010400
 797.5 0.0010300
 800.0 0.0010300
 802.5 0.0010000
 805.0 0.0009700
 807.5 0.0009900
 810.0 0.0009800
 812.5 0.0009600
 815.0 0.0009400
 817.5 0.0009300
 820.0 0.0009500
 822.5 0.0009400
 825.0 0.0009300
 827.5 0.0009200
 830.0 0.0009000
 832.5 0.0008900
 835.0 0.0008800
 837.5 0.0008700
 840.0 0.0008600
 842.5 0.0008500
 845.0 0.0008600
 847.5 0.0008600
 850.0 0.0008500
 852.5 0.0008300
 855.0 0.0008200
 857.5 0.0008100
 860.0 0.0007900
 862.5 0.0008100
 865.0 0.0008000
 867.5 0.0007900
 870.0 0.0008000
 872.5 0.0007700
 875.0 0.0007800
 877.5 0.0007600
 880.0 0.0007400
 882.5 0.0007400
 885.0 0.0007500
 887.5 0.0007300
 890.0 0.0007200
 892.5 0.0007000
 895.0 0.0006800
 897.5 0.0006500
 900.0 0.0006400
 902.5 0.0006300
 905.0 0.0006400
 907.5 0.0006400
 910.0 0.0006300
 912.5 0.0006400
 915.0 0.0006300
 917.5 0.0006000
 920.0 0.0005900
 922.5 0.0006000
 925.0 0.0005900
 927.5 0.0006000
 930.0 0.0006000
 932.5 0.0006000
 935.0 0.0006000
 937.5 0.0005900
 940.0 0.0005800
 942.5 0.0005700
 945.0 0.0005500
 947.5 0.0005600
 950.0 0.0005300
 952.5 0.0005300
 955.0 0.0005200
 957.5 0.0005300
 960.0 0.0005300
 962.5 0.0005300
 965.0 0.0005400
 967.5 0.0005200
 970.0 0.0005100
 972.5 0.0005200
 975.0 0.0005100
 977.5 0.0005200
 980.0 0.0005000
 982.5 0.0005100
 985.0 0.0005000
 987.5 0.0005000
 990.0 0.0005000
 992.5 0.0004900
 995.0 0.0004900
 997.5 0.0004800
1000.0 0.0004600
1002.5 0.0004600
1005.0 0.0004600
1007.5 0.0004600
1010.0 0.0004800
1012.5 0.0004700
1015.0 0.0004600
1017.5 0.0004600
1020.0 0.0004600
1022.5 0.0004600
1025.0 0.0004600
1027.5 0.0004400
1030.0 0.0004600
1032.5 0.0004400
1035.0 0.0004500
1037.5 0.0004500
1040.0 0.0004400
1042.5 0.0004300
1045.0 0.0004300
1047.5 0.0004200
1050.0 0.0004300
1052.5 0.0004400
1055.0 0.0004200
1057.5 0.0004100
1060.0 0.0004200
1062.5 0.0004100
1065.0 0.0004000
1067.5 0.0003900
1070.0 0.0004100
1072.5 0.0003900
1075.0 0.0004000
1077.5 0.0003900
1080.0 0.0003800

# nm  Flux(W/m2/m) for star HR 6580 from file: table6.dat
 320.0 0.0156200
 322.5 0.0161000
 325.0 0.0154700
 327.5 0.0152600
 330.0 0.0147600
 332.5 0.0145700
 335.0 0.0145100
 337.5 0.0142700
 340.0 0.0140700
 342.5 0.0139400
 345.0 0.0135000
 347.5 0.0136000
 350.0 0.0133500
 352.5 0.0129400
 355.0 0.0126500
 357.5 0.0124700
 360.0 0.0120900
 362.5 0.0117900
 365.0 0.0116600
 367.5 0.0114300
 370.0 0.0108300
 372.5 0.0107600
 375.0 0.0109400
 377.5 0.0111100
 380.0 0.0110700
 382.5 0.0108400
 385.0 0.0112000
 387.5 0.0111000
 390.0 0.0108500
 392.5 0.0113200
 395.0 0.0107300
 397.5 0.0101700
 400.0 0.0103500
 402.5 0.0103800
 405.0 0.0105300
 407.5 0.0100400
 410.0 0.0092200
 412.5 0.0092200
 415.0 0.0095100
 417.5 0.0094700
 420.0 0.0094400
 422.5 0.0093600
 425.0 0.0091100
 427.5 0.0089600
 430.0 0.0087500
 432.5 0.0079100
 435.0 0.0075800
 437.5 0.0078600
 440.0 0.0078900
 442.5 0.0078800
 445.0 0.0075600
 447.5 0.0072400
 450.0 0.0073300
 452.5 0.0073000
 455.0 0.0071000
 457.5 0.0068900
 460.0 0.0067900
 462.5 0.0067400
 465.0 0.0065800
 467.5 0.0064900
 470.0 0.0064600
 472.5 0.0064200
 475.0 0.0063200
 477.5 0.0061500
 480.0 0.0060800
 482.5 0.0059200
 485.0 0.0054600
 487.5 0.0053000
 490.0 0.0055200
 492.5 0.0055100
 495.0 0.0054500
 497.5 0.0053900
 500.0 0.0052800
 502.5 0.0052100
 505.0 0.0051600
 507.5 0.0051300
 510.0 0.0050400
 512.5 0.0049700
 515.0 0.0049100
 517.5 0.0048100
 520.0 0.0048000
 522.5 0.0046900
 525.0 0.0045700
 527.5 0.0045100
 530.0 0.0044400
 532.5 0.0043600
 535.0 0.0043600
 537.5 0.0043300
 540.0 0.0042300
 542.5 0.0041200
 545.0 0.0040600
 547.5 0.0040000
 550.0 0.0039600
 552.5 0.0038900
 555.0 0.0037900
 557.5 0.0037700
 560.0 0.0037100
 562.5 0.0036500
 565.0 0.0035600
 567.5 0.0034700
 570.0 0.0034100
 572.5 0.0033500
 575.0 0.0033600
 577.5 0.0032700
 580.0 0.0031100
 582.5 0.0031200
 585.0 0.0031000
 587.5 0.0030300
 590.0 0.0030100
 592.5 0.0029900
 595.0 0.0029700
 597.5 0.0029300
 600.0 0.0028400
 602.5 0.0028200
 605.0 0.0028100
 607.5 0.0027800
 610.0 0.0027500
 612.5 0.0027100
 615.0 0.0026400
 617.5 0.0026100
 620.0 0.0025400
 622.5 0.0025400
 625.0 0.0024800
 627.5 0.0024400
 630.0 0.0024100
 632.5 0.0024100
 635.0 0.0023600
 637.5 0.0023400
 640.0 0.0023200
 642.5 0.0023000
 645.0 0.0022700
 647.5 0.0022800
 650.0 0.0021300
 652.5 0.0020800
 655.0 0.0019500
 657.5 0.0019000
 660.0 0.0020300
 662.5 0.0020600
 665.0 0.0020200
 667.5 0.0019700
 670.0 0.0019300
 672.5 0.0019200
 675.0 0.0019100
 677.5 0.0018800
 680.0 0.0018300
 682.5 0.0018100
 685.0 0.0018300
 687.5 0.0017000
 690.0 0.0017900
 692.5 0.0017500
 695.0 0.0017100
 697.5 0.0016900
 700.0 0.0016600
 702.5 0.0016100
 705.0 0.0016000
 707.5 0.0015300
 710.0 0.0015100
 712.5 0.0015200
 715.0 0.0015400
 717.5 0.0014900
 720.0 0.0014600
 722.5 0.0014800
 725.0 0.0014500
 727.5 0.0014200
 730.0 0.0013700
 732.5 0.0013900
 735.0 0.0013800

