# nm  Flux(W/m2/m) for star HR 6789 from file: table5.dat
 320.0 0.0004940
 322.5 0.0004950
 325.0 0.0004980
 327.5 0.0005010
 330.0 0.0005040
 332.5 0.0005050
 335.0 0.0005060
 337.5 0.0005070
 340.0 0.0005100
 342.5 0.0005120
 345.0 0.0005130
 347.5 0.0005140
 350.0 0.0005130
 352.5 0.0005120
 355.0 0.0005110
 357.5 0.0005090
 360.0 0.0005080
 362.5 0.0005070
 365.0 0.0005090
 367.5 0.0005190
 370.0 0.0005480
 372.5 0.0006000
 375.0 0.0006750
 377.5 0.0007600
 380.0 0.0008440
 382.5 0.0009130
 385.0 0.0009770
 387.5 0.0010320
 390.0 0.0010790
 392.5 0.0011010
 395.0 0.0011150
 397.5 0.0011580
 400.0 0.0012230
 402.5 0.0012530
 405.0 0.0012130
 407.5 0.0011460
 410.0 0.0011300
 412.5 0.0011750
 415.0 0.0012350
 417.5 0.0012610
 420.0 0.0012550
 422.5 0.0012330
 425.0 0.0011910
 427.5 0.0011180
 430.0 0.0010320
 432.5 0.0009780
 435.0 0.0009910
 437.5 0.0010450
 440.0 0.0010930
 442.5 0.0011090
 445.0 0.0011010
 447.5 0.0010860
 450.0 0.0010710
 452.5 0.0010550
 455.0 0.0010390
 457.5 0.0010240
 460.0 0.0010100
 462.5 0.0009990
 465.0 0.0009870
 467.5 0.0009750
 470.0 0.0009590
 472.5 0.0009400
 475.0 0.0009160
 477.5 0.0008780
 480.0 0.0008190
 482.5 0.0007560
 485.0 0.0007210
 487.5 0.0007350
 490.0 0.0007750
 492.5 0.0008080
 495.0 0.0008190
 497.5 0.0008160
 500.0 0.0008100
 502.5 0.0008000
 505.0 0.0007900
 507.5 0.0007800
 510.0 0.0007680
 512.5 0.0007590
 515.0 0.0007480
 517.5 0.0007390
 520.0 0.0007300
 522.5 0.0007250
 525.0 0.0007160
 527.5 0.0007090
 530.0 0.0007000
 532.5 0.0006920
 535.0 0.0006860
 537.5 0.0006770
 540.0 0.0006680
 542.5 0.0006610
 545.0 0.0006530
 547.5 0.0006440
 550.0 0.0006360
 552.5 0.0006260
 555.0 0.0006170
 557.5 0.0006090
 560.0 0.0005990
 562.5 0.0005920
 565.0 0.0005860
 567.5 0.0005770
 570.0 0.0005720
 572.5 0.0005680
 575.0 0.0005620
 577.5 0.0005570
 580.0 0.0005530
 582.5 0.0005480
 585.0 0.0005400
 587.5 0.0005340
 590.0 0.0005250
 592.5 0.0005200
 595.0 0.0005130
 597.5 0.0005110
 600.0 0.0005050
 602.5 0.0005000
 605.0 0.0004940
 607.5 0.0004890
 610.0 0.0004840
 612.5 0.0004760
 615.0 0.0004690
 617.5 0.0004630
 620.0 0.0004580
 622.5 0.0004530
 625.0 0.0004490
 627.5 0.0004440
 630.0 0.0004410
 632.5 0.0004370
 635.0 0.0004330
 637.5 0.0004290
 640.0 0.0004230
 642.5 0.0004140
 645.0 0.0004000
 647.5 0.0003810
 650.0 0.0003550
 652.5 0.0003320
 655.0 0.0003240
 657.5 0.0003330
 660.0 0.0003530
 662.5 0.0003700
 665.0 0.0003780
 667.5 0.0003780
 670.0 0.0003750
 672.5 0.0003720
 675.0 0.0003670
 677.5 0.0003640
 680.0 0.0003600
 682.5 0.0003560
 685.0 0.0003530
 687.5 0.0003500
 690.0 0.0003480
 692.5 0.0003450
 695.0 0.0003430
 697.5 0.0003380
 700.0 0.0003340
 702.5 0.0003290
 705.0 0.0003240
 707.5 0.0003190
 710.0 0.0003150
 712.5 0.0003090
 715.0 0.0003050
 717.5 0.0003010
 720.0 0.0003000
 722.5 0.0002970
 725.0 0.0002960
 727.5 0.0002970
 730.0 0.0002940
 732.5 0.0002930
 735.0 0.0002870
 737.5 0.0002810
 740.0 0.0002560
 742.5 0.0002630
 745.0 0.0002550
 747.5 0.0002500
 750.0 0.0002620
 752.5 0.0002400
 755.0 0.0002480
 757.5 0.0002570
 760.0 0.0002560
 762.5 0.0002310
 765.0 0.0002580
 767.5 0.0002380
 770.0 0.0002310
 772.5 0.0002310
 775.0 0.0002360
 777.5 0.0002360
 780.0 0.0002190
 782.5 0.0002180
 785.0 0.0002210
 787.5 0.0002170
 790.0 0.0002150
 792.5 0.0002130
 795.0 0.0002170
 797.5 0.0002080
 800.0 0.0002070
 802.5 0.0002060
 805.0 0.0001960
 807.5 0.0002020
 810.0 0.0001900
 812.5 0.0001990
 815.0 0.0001920
 817.5 0.0002010
 820.0 0.0001920
 822.5 0.0001910
 825.0 0.0001940
 827.5 0.0001900
 830.0 0.0001820
 832.5 0.0001890
 835.0 0.0001890
 837.5 0.0001830
 840.0 0.0001780
 842.5 0.0001870
 845.0 0.0001710
 847.5 0.0001800
 850.0 0.0001780
 852.5 0.0001790
 855.0 0.0001760
 857.5 0.0001800
 860.0 0.0001680
 862.5 0.0001710
 865.0 0.0001730
 867.5 0.0001720
 870.0 0.0001750
 872.5 0.0001740
 875.0 0.0001730
 877.5 0.0001710
 880.0 0.0001730
 882.5 0.0001670
 885.0 0.0001660
 887.5 0.0001650
 890.0 0.0001570
 892.5 0.0001640
 895.0 0.0001550
 897.5 0.0001450
 900.0 0.0001520
 902.5 0.0001620
 905.0 0.0001650
 907.5 0.0001610
 910.0 0.0001520
 912.5 0.0001620
 915.0 0.0001530
 917.5 0.0001540
 920.0 0.0001390
 922.5 0.0001330
 925.0 0.0001290
 927.5 0.0001440
 930.0 0.0001360
 932.5 0.0001530
 935.0 0.0001490
 937.5 0.0001470
 940.0 0.0001530
 942.5 0.0001390
 945.0 0.0001420
 947.5 0.0001430
 950.0 0.0001370
 952.5 0.0001300
 955.0 0.0001340
 957.5 0.0001330
 960.0 0.0001480
 962.5 0.0001430
 965.0 0.0001270
 967.5 0.0001360
 970.0 0.0001310
 972.5 0.0001340
 975.0 0.0001380
 977.5 0.0001320
 980.0 0.0001300
 982.5 0.0001360
 985.0 0.0001370
 987.5 0.0001330
 990.0 0.0001250
 992.5 0.0001290
 995.0 0.0001280
 997.5 0.0001290
1000.0 0.0001140
1002.5 0.0001140
1005.0 0.0001100
1007.5 0.0001200
1010.0 0.0001250
1012.5 0.0001220
1015.0 0.0001240
1017.5 0.0001230
1020.0 0.0001240
1022.5 0.0001230
1025.0 0.0001220
1027.5 0.0001200
1030.0 0.0001190
1032.5 0.0001180
1035.0 0.0001170
1037.5 0.0001170
1040.0 0.0001160
1042.5 0.0001170
1045.0 0.0001200
1047.5 0.0001150
1050.0 0.0001120
1052.5 0.0001050
1055.0 0.0001050
1057.5 0.0001060
1060.0 0.0001050
1062.5 0.0001050
1065.0 0.0001080
1067.5 0.0001090
1070.0 0.0001070
1072.5 0.0001040
1075.0 0.0001010
1077.5 0.0001020
1080.0 0.0001040

# nm  Flux(W/m2/m) for star HR 6789 from file: table6.dat
 320.0 0.0004910
 322.5 0.0004920
 325.0 0.0004970
 327.5 0.0005020
 330.0 0.0005050
 332.5 0.0005060
 335.0 0.0005050
 337.5 0.0005050
 340.0 0.0005100
 342.5 0.0005140
 345.0 0.0005140
 347.5 0.0005130
 350.0 0.0005140
 352.5 0.0005140
 355.0 0.0005110
 357.5 0.0005080
 360.0 0.0005070
 362.5 0.0005080
 365.0 0.0005060
 367.5 0.0005070
 370.0 0.0005260
 372.5 0.0005780
 375.0 0.0006700
 377.5 0.0007680
 380.0 0.0008500
 382.5 0.0009160
 385.0 0.0010100
 387.5 0.0009770
 390.0 0.0011230
 392.5 0.0011750
 395.0 0.0010350
 397.5 0.0010890
 400.0 0.0012810
 402.5 0.0013460
 405.0 0.0012650
 407.5 0.0010590
 410.0 0.0010370
 412.5 0.0011930
 415.0 0.0012950
 417.5 0.0012750
 420.0 0.0012540
 422.5 0.0012360
 425.0 0.0012170
 427.5 0.0011630
 430.0 0.0010180
 432.5 0.0008700
 435.0 0.0009530
 437.5 0.0010860
 440.0 0.0011250
 442.5 0.0011190
 445.0 0.0011020
 447.5 0.0010860
 450.0 0.0010710
 452.5 0.0010560
 455.0 0.0010400
 457.5 0.0010210
 460.0 0.0010080
 462.5 0.0009990
 465.0 0.0009890
 467.5 0.0009750
 470.0 0.0009610
 472.5 0.0009440
 475.0 0.0009190
 477.5 0.0008960
 480.0 0.0008500
 482.5 0.0007340
 485.0 0.0006420
 487.5 0.0007220
 490.0 0.0008050
 492.5 0.0008260
 495.0 0.0008230
 497.5 0.0008170
 500.0 0.0008110
 502.5 0.0008000
 505.0 0.0007880
 507.5 0.0007800
 510.0 0.0007690
 512.5 0.0007560
 515.0 0.0007450
 517.5 0.0007390
 520.0 0.0007300
 522.5 0.0007200
 525.0 0.0007110
 527.5 0.0007090
 530.0 0.0007000
 532.5 0.0006910
 535.0 0.0006850
 537.5 0.0006760
 540.0 0.0006660
 542.5 0.0006580
 545.0 0.0006520
 547.5 0.0006400
 550.0 0.0006310
 552.5 0.0006250
 555.0 0.0006170
 557.5 0.0006060
 560.0 0.0005960
 562.5 0.0005900
 565.0 0.0005840
 567.5 0.0005770
 570.0 0.0005700
 572.5 0.0005670
 575.0 0.0005610
 577.5 0.0005580
 580.0 0.0005540
 582.5 0.0005500
 585.0 0.0005440
 587.5 0.0005340
 590.0 0.0005250
 592.5 0.0005200
 595.0 0.0005160
 597.5 0.0005100
 600.0 0.0005040
 602.5 0.0004990
 605.0 0.0004940
 607.5 0.0004880
 610.0 0.0004830
 612.5 0.0004760
 615.0 0.0004690
 617.5 0.0004620
 620.0 0.0004570
 622.5 0.0004540
 625.0 0.0004500
 627.5 0.0004450
 630.0 0.0004420
 632.5 0.0004370
 635.0 0.0004330
 637.5 0.0004290
 640.0 0.0004250
 642.5 0.0004190
 645.0 0.0004050
 647.5 0.0003840
 650.0 0.0003590
 652.5 0.0003260
 655.0 0.0002960
 657.5 0.0003220
 660.0 0.0003600
 662.5 0.0003780
 665.0 0.0003850
 667.5 0.0003810
 670.0 0.0003750
 672.5 0.0003730
 675.0 0.0003690
 677.5 0.0003640
 680.0 0.0003630
 682.5 0.0003620
 685.0 0.0003520
 687.5 0.0003490
 690.0 0.0003500
 692.5 0.0003480
 695.0 0.0003450
 697.5 0.0003400
 700.0 0.0003360
 702.5 0.0003320
 705.0 0.0003260
 707.5 0.0003210
 710.0 0.0003150
 712.5 0.0003110
 715.0 0.0003050
 717.5 0.0003030
 720.0 0.0003020
 722.5 0.0002960
 725.0 0.0002970
 727.5 0.0002990
 730.0 0.0003000
 732.5 0.0002970
 735.0 0.0002890

