# nm  Flux(W/m2/m) for star HR 6879 from file: table5.dat
 320.0 0.0057100
 322.5 0.0057200
 325.0 0.0057300
 327.5 0.0057700
 330.0 0.0057900
 332.5 0.0058000
 335.0 0.0058000
 337.5 0.0058200
 340.0 0.0058500
 342.5 0.0058900
 345.0 0.0059100
 347.5 0.0059200
 350.0 0.0059200
 352.5 0.0059200
 355.0 0.0059000
 357.5 0.0058600
 360.0 0.0058200
 362.5 0.0057900
 365.0 0.0058600
 367.5 0.0061400
 370.0 0.0068000
 372.5 0.0079100
 375.0 0.0093200
 377.5 0.0107300
 380.0 0.0119100
 382.5 0.0127400
 385.0 0.0132800
 387.5 0.0137000
 390.0 0.0139400
 392.5 0.0140300
 395.0 0.0138500
 397.5 0.0138700
 400.0 0.0142700
 402.5 0.0146800
 405.0 0.0145600
 407.5 0.0138300
 410.0 0.0131800
 412.5 0.0131700
 415.0 0.0135400
 417.5 0.0138000
 420.0 0.0137800
 422.5 0.0135800
 425.0 0.0133800
 427.5 0.0129200
 430.0 0.0121700
 432.5 0.0114000
 435.0 0.0110700
 437.5 0.0113200
 440.0 0.0116600
 442.5 0.0117800
 445.0 0.0116100
 447.5 0.0113800
 450.0 0.0111800
 452.5 0.0109800
 455.0 0.0108200
 457.5 0.0107000
 460.0 0.0106100
 462.5 0.0105400
 465.0 0.0104500
 467.5 0.0103600
 470.0 0.0102500
 472.5 0.0101200
 475.0 0.0099600
 477.5 0.0097700
 480.0 0.0094400
 482.5 0.0089400
 485.0 0.0084300
 487.5 0.0082300
 490.0 0.0084400
 492.5 0.0087200
 495.0 0.0088500
 497.5 0.0087700
 500.0 0.0086500
 502.5 0.0085400
 505.0 0.0084400
 507.5 0.0083700
 510.0 0.0082800
 512.5 0.0081700
 515.0 0.0080500
 517.5 0.0079100
 520.0 0.0078200
 522.5 0.0077200
 525.0 0.0076200
 527.5 0.0075100
 530.0 0.0074100
 532.5 0.0073200
 535.0 0.0072400
 537.5 0.0071600
 540.0 0.0070700
 542.5 0.0069800
 545.0 0.0068900
 547.5 0.0068000
 550.0 0.0067200
 552.5 0.0066300
 555.0 0.0065500
 557.5 0.0064600
 560.0 0.0063700
 562.5 0.0062800
 565.0 0.0061800
 567.5 0.0061000
 570.0 0.0060300
 572.5 0.0059500
 575.0 0.0058800
 577.5 0.0057900
 580.0 0.0057000
 582.5 0.0056300
 585.0 0.0055800
 587.5 0.0055500
 590.0 0.0055100
 592.5 0.0054600
 595.0 0.0054000
 597.5 0.0053300
 600.0 0.0052600
 602.5 0.0052000
 605.0 0.0051400
 607.5 0.0051000
 610.0 0.0050400
 612.5 0.0049700
 615.0 0.0049000
 617.5 0.0048400
 620.0 0.0047700
 622.5 0.0047200
 625.0 0.0046500
 627.5 0.0045900
 630.0 0.0045300
 632.5 0.0044900
 635.0 0.0044400
 637.5 0.0044000
 640.0 0.0043500
 642.5 0.0043200
 645.0 0.0042700
 647.5 0.0042000
 650.0 0.0040500
 652.5 0.0038600
 655.0 0.0036900
 657.5 0.0036500
 660.0 0.0037500
 662.5 0.0038700
 665.0 0.0039100
 667.5 0.0038800
 670.0 0.0038200
 672.5 0.0037600
 675.0 0.0037100
 677.5 0.0036600
 680.0 0.0036200
 682.5 0.0035700
 685.0 0.0035400
 687.5 0.0035000
 690.0 0.0034700
 692.5 0.0034400
 695.0 0.0034000
 697.5 0.0033500
 700.0 0.0032900
 702.5 0.0032400
 705.0 0.0031900
 707.5 0.0031500
 710.0 0.0031200
 712.5 0.0030900
 715.0 0.0030600
 717.5 0.0030100
 720.0 0.0029700
 722.5 0.0029400
 725.0 0.0029200
 727.5 0.0028900
 730.0 0.0028400
 732.5 0.0028100
 735.0 0.0027800
 737.5 0.0027400
 740.0 0.0027200
 742.5 0.0027000
 745.0 0.0026500
 747.5 0.0026100
 750.0 0.0026200
 752.5 0.0025400
 755.0 0.0024900
 757.5 0.0025000
 760.0 0.0025100
 762.5 0.0025800
 765.0 0.0025600
 767.5 0.0025000
 770.0 0.0024400
 772.5 0.0023400
 775.0 0.0023900
 777.5 0.0023200
 780.0 0.0023000
 782.5 0.0023000
 785.0 0.0022900
 787.5 0.0022900
 790.0 0.0022000
 792.5 0.0022000
 795.0 0.0022200
 797.5 0.0021800
 800.0 0.0021900
 802.5 0.0021100
 805.0 0.0021200
 807.5 0.0020800
 810.0 0.0021300
 812.5 0.0020800
 815.0 0.0020500
 817.5 0.0020400
 820.0 0.0020500
 822.5 0.0020100
 825.0 0.0020200
 827.5 0.0019700
 830.0 0.0019600
 832.5 0.0019600
 835.0 0.0019500
 837.5 0.0019200
 840.0 0.0018700
 842.5 0.0018700
 845.0 0.0018800
 847.5 0.0019000
 850.0 0.0018500
 852.5 0.0018900
 855.0 0.0018500
 857.5 0.0019000
 860.0 0.0018400
 862.5 0.0018700
 865.0 0.0018700
 867.5 0.0018900
 870.0 0.0018900
 872.5 0.0019100
 875.0 0.0018800
 877.5 0.0018700
 880.0 0.0018600
 882.5 0.0018300
 885.0 0.0017800
 887.5 0.0018100
 890.0 0.0018200
 892.5 0.0018000
 895.0 0.0017100
 897.5 0.0016400
 900.0 0.0015900
 902.5 0.0016000
 905.0 0.0016500
 907.5 0.0016800
 910.0 0.0016900
 912.5 0.0017000
 915.0 0.0016200
 917.5 0.0015600
 920.0 0.0015200
 922.5 0.0014800
 925.0 0.0015100
 927.5 0.0015400
 930.0 0.0015500
 932.5 0.0015600
 935.0 0.0015600
 937.5 0.0015400
 940.0 0.0014900
 942.5 0.0014300
 945.0 0.0014500
 947.5 0.0014600
 950.0 0.0013500
 952.5 0.0013400
 955.0 0.0013300
 957.5 0.0014000
 960.0 0.0014100
 962.5 0.0014100
 965.0 0.0014200
 967.5 0.0014000
 970.0 0.0013700
 972.5 0.0014000
 975.0 0.0013900
 977.5 0.0013600
 980.0 0.0013900
 982.5 0.0013700
 985.0 0.0013600
 987.5 0.0013500
 990.0 0.0013700
 992.5 0.0013400
 995.0 0.0013200
 997.5 0.0012900
1000.0 0.0012500
1002.5 0.0012100
1005.0 0.0011400
1007.5 0.0012000
1010.0 0.0012400
1012.5 0.0012300
1015.0 0.0012500
1017.5 0.0012200
1020.0 0.0012500
1022.5 0.0012100
1025.0 0.0012500
1027.5 0.0011900
1030.0 0.0012100
1032.5 0.0011800
1035.0 0.0011500
1037.5 0.0011500
1040.0 0.0011800
1042.5 0.0011600
1045.0 0.0011500
1047.5 0.0011400
1050.0 0.0011400
1052.5 0.0011500
1055.0 0.0011300
1057.5 0.0011200
1060.0 0.0010800
1062.5 0.0010900
1065.0 0.0011100
1067.5 0.0011100
1070.0 0.0010900
1072.5 0.0010500
1075.0 0.0010300
1077.5 0.0010500
1080.0 0.0010200

# nm  Flux(W/m2/m) for star HR 6879 from file: table6.dat
 320.0 0.0056100
 322.5 0.0058200
 325.0 0.0056700
 327.5 0.0057700
 330.0 0.0058300
 332.5 0.0058500
 335.0 0.0057300
 337.5 0.0058100
 340.0 0.0058300
 342.5 0.0059400
 345.0 0.0059200
 347.5 0.0059100
 350.0 0.0058900
 352.5 0.0059400
 355.0 0.0059500
 357.5 0.0058600
 360.0 0.0058000
 362.5 0.0057200
 365.0 0.0058200
 367.5 0.0058100
 370.0 0.0063600
 372.5 0.0077000
 375.0 0.0093200
 377.5 0.0109400
 380.0 0.0123600
 382.5 0.0126700
 385.0 0.0135600
 387.5 0.0139100
 390.0 0.0133000
 392.5 0.0152100
 395.0 0.0138200
 397.5 0.0125400
 400.0 0.0144900
 402.5 0.0153200
 405.0 0.0153700
 407.5 0.0140000
 410.0 0.0118000
 412.5 0.0128400
 415.0 0.0142400
 417.5 0.0139700
 420.0 0.0137300
 422.5 0.0135800
 425.0 0.0134400
 427.5 0.0131900
 430.0 0.0127500
 432.5 0.0107600
 435.0 0.0099100
 437.5 0.0117800
 440.0 0.0120400
 442.5 0.0118700
 445.0 0.0116300
 447.5 0.0112900
 450.0 0.0111700
 452.5 0.0110300
 455.0 0.0107800
 457.5 0.0106200
 460.0 0.0105900
 462.5 0.0106100
 465.0 0.0104500
 467.5 0.0103100
 470.0 0.0103200
 472.5 0.0101600
 475.0 0.0099500
 477.5 0.0097700
 480.0 0.0095900
 482.5 0.0093800
 485.0 0.0079600
 487.5 0.0074300
 490.0 0.0087600
 492.5 0.0089900
 495.0 0.0088800
 497.5 0.0088200
 500.0 0.0086300
 502.5 0.0085000
 505.0 0.0084300
 507.5 0.0083600
 510.0 0.0083300
 512.5 0.0081700
 515.0 0.0080700
 517.5 0.0078300
 520.0 0.0078600
 522.5 0.0077300
 525.0 0.0076200
 527.5 0.0075000
 530.0 0.0073900
 532.5 0.0072800
 535.0 0.0072600
 537.5 0.0071900
 540.0 0.0070500
 542.5 0.0070000
 545.0 0.0068900
 547.5 0.0067600
 550.0 0.0067600
 552.5 0.0066500
 555.0 0.0064900
 557.5 0.0064800
 560.0 0.0063900
 562.5 0.0062600
 565.0 0.0061800
 567.5 0.0061000
 570.0 0.0060200
 572.5 0.0059400
 575.0 0.0059000
 577.5 0.0058300
 580.0 0.0056200
 582.5 0.0055900
 585.0 0.0056200
 587.5 0.0055500
 590.0 0.0054900
 592.5 0.0054700
 595.0 0.0054200
 597.5 0.0053400
 600.0 0.0052300
 602.5 0.0052000
 605.0 0.0051400
 607.5 0.0051100
 610.0 0.0050400
 612.5 0.0049800
 615.0 0.0048900
 617.5 0.0048300
 620.0 0.0047600
 622.5 0.0047500
 625.0 0.0046500
 627.5 0.0045600
 630.0 0.0045100
 632.5 0.0045100
 635.0 0.0044200
 637.5 0.0044100
 640.0 0.0043500
 642.5 0.0043100
 645.0 0.0042700
 647.5 0.0042700
 650.0 0.0040700
 652.5 0.0039600
 655.0 0.0035400
 657.5 0.0033900
 660.0 0.0038300
 662.5 0.0039700
 665.0 0.0039600
 667.5 0.0038800
 670.0 0.0037900
 672.5 0.0037700
 675.0 0.0036900
 677.5 0.0036600
 680.0 0.0036000
 682.5 0.0035600
 685.0 0.0035900
 687.5 0.0034100
 690.0 0.0035300
 692.5 0.0034400
 695.0 0.0034000
 697.5 0.0033500
 700.0 0.0033000
 702.5 0.0032100
 705.0 0.0031900
 707.5 0.0031500
 710.0 0.0031200
 712.5 0.0030800
 715.0 0.0030900
 717.5 0.0030200
 720.0 0.0029200
 722.5 0.0029600
 725.0 0.0029400
 727.5 0.0028900
 730.0 0.0028200
 732.5 0.0028200
 735.0 0.0027800

