# nm  Flux(W/m2/m) for star HR 7371 from file: table5.dat
 320.0 0.0003510
 322.5 0.0003620
 325.0 0.0003740
 327.5 0.0003850
 330.0 0.0003930
 332.5 0.0003940
 335.0 0.0003900
 337.5 0.0003880
 340.0 0.0003880
 342.5 0.0003910
 345.0 0.0003940
 347.5 0.0003960
 350.0 0.0003950
 352.5 0.0003930
 355.0 0.0003900
 357.5 0.0003900
 360.0 0.0003940
 362.5 0.0004000
 365.0 0.0004060
 367.5 0.0004130
 370.0 0.0004300
 372.5 0.0004640
 375.0 0.0005200
 377.5 0.0005890
 380.0 0.0006670
 382.5 0.0007360
 385.0 0.0007960
 387.5 0.0008450
 390.0 0.0008840
 392.5 0.0008990
 395.0 0.0008990
 397.5 0.0009170
 400.0 0.0009710
 402.5 0.0010200
 405.0 0.0010080
 407.5 0.0009430
 410.0 0.0008900
 412.5 0.0008980
 415.0 0.0009470
 417.5 0.0009920
 420.0 0.0010070
 422.5 0.0010030
 425.0 0.0009840
 427.5 0.0009390
 430.0 0.0008690
 432.5 0.0008030
 435.0 0.0007810
 437.5 0.0008140
 440.0 0.0008630
 442.5 0.0008950
 445.0 0.0009000
 447.5 0.0008910
 450.0 0.0008770
 452.5 0.0008620
 455.0 0.0008490
 457.5 0.0008370
 460.0 0.0008280
 462.5 0.0008210
 465.0 0.0008140
 467.5 0.0008050
 470.0 0.0007940
 472.5 0.0007810
 475.0 0.0007680
 477.5 0.0007520
 480.0 0.0007150
 482.5 0.0006590
 485.0 0.0006060
 487.5 0.0005920
 490.0 0.0006150
 492.5 0.0006480
 495.0 0.0006670
 497.5 0.0006690
 500.0 0.0006640
 502.5 0.0006570
 505.0 0.0006490
 507.5 0.0006400
 510.0 0.0006420
 512.5 0.0006270
 515.0 0.0006170
 517.5 0.0006040
 520.0 0.0006020
 522.5 0.0005940
 525.0 0.0005840
 527.5 0.0005850
 530.0 0.0005800
 532.5 0.0005690
 535.0 0.0005620
 537.5 0.0005600
 540.0 0.0005550
 542.5 0.0005510
 545.0 0.0005400
 547.5 0.0005340
 550.0 0.0005330
 552.5 0.0005250
 555.0 0.0005180
 557.5 0.0005110
 560.0 0.0005060
 562.5 0.0004970
 565.0 0.0004900
 567.5 0.0004820
 570.0 0.0004750
 572.5 0.0004720
 575.0 0.0004650
 577.5 0.0004580
 580.0 0.0004540
 582.5 0.0004490
 585.0 0.0004450
 587.5 0.0004370
 590.0 0.0004300
 592.5 0.0004240
 595.0 0.0004210
 597.5 0.0004220
 600.0 0.0004170
 602.5 0.0004150
 605.0 0.0004070
 607.5 0.0004030
 610.0 0.0003950
 612.5 0.0003910
 615.0 0.0003850
 617.5 0.0003820
 620.0 0.0003820
 622.5 0.0003820
 625.0 0.0003720
 627.5 0.0003670
 630.0 0.0003630
 632.5 0.0003580
 635.0 0.0003540
 637.5 0.0003510
 640.0 0.0003430
 642.5 0.0003410
 645.0 0.0003360
 647.5 0.0003320
 650.0 0.0003140
 652.5 0.0002940
 655.0 0.0002790
 657.5 0.0002750
 660.0 0.0002800
 662.5 0.0002950
 665.0 0.0003010
 667.5 0.0003030
 670.0 0.0003000
 672.5 0.0002980
 675.0 0.0002980
 677.5 0.0002950
 680.0 0.0002920
 682.5 0.0002860
 685.0 0.0002830
 687.5 0.0002790
 690.0 0.0002740
 692.5 0.0002710
 695.0 0.0002680
 697.5 0.0002660
 700.0 0.0002610
 702.5 0.0002570
 705.0 0.0002550
 707.5 0.0002520
 710.0 0.0002500
 712.5 0.0002450
 715.0 0.0002410
 717.5 0.0002340
 720.0 0.0002320
 722.5 0.0002300
 725.0 0.0002300
 727.5 0.0002270
 730.0 0.0002230
 732.5 0.0002210
 735.0 0.0002160
 737.5 0.0002130
 740.0 0.0002130
 742.5 0.0002160
 745.0 0.0002150
 747.5 0.0002100
 750.0 0.0002080
 752.5 0.0002070
 755.0 0.0002080
 757.5 0.0002080
 760.0 0.0002050
 762.5 0.0002040
 765.0 0.0001960
 767.5 0.0001930
 770.0 0.0001930
 772.5 0.0001920
 775.0 0.0001910
 777.5 0.0001900
 780.0 0.0001900
 782.5 0.0001880
 785.0 0.0001840
 787.5 0.0001830
 790.0 0.0001800
 792.5 0.0001790
 795.0 0.0001780
 797.5 0.0001780
 800.0 0.0001780
 802.5 0.0001730
 805.0 0.0001710
 807.5 0.0001720
 810.0 0.0001650
 812.5 0.0001620
 815.0 0.0001620
 817.5 0.0001620
 820.0 0.0001580
 822.5 0.0001540
 825.0 0.0001570
 827.5 0.0001570
 830.0 0.0001560
 832.5 0.0001540
 835.0 0.0001520
 837.5 0.0001530
 840.0 0.0001520
 842.5 0.0001510
 845.0 0.0001500
 847.5 0.0001510
 850.0 0.0001500
 852.5 0.0001490
 855.0 0.0001480
 857.5 0.0001490
 860.0 0.0001490
 862.5 0.0001470
 865.0 0.0001490
 867.5 0.0001450
 870.0 0.0001450
 872.5 0.0001440
 875.0 0.0001450
 877.5 0.0001460
 880.0 0.0001450
 882.5 0.0001410
 885.0 0.0001390
 887.5 0.0001370
 890.0 0.0001410
 892.5 0.0001420
 895.0 0.0001410
 897.5 0.0001310
 900.0 0.0001250
 902.5 0.0001240
 905.0 0.0001270
 907.5 0.0001320
 910.0 0.0001330
 912.5 0.0001320
 915.0 0.0001300
 917.5 0.0001230
 920.0 0.0001150
 922.5 0.0001130
 925.0 0.0001170
 927.5 0.0001230
 930.0 0.0001290
 932.5 0.0001280
 935.0 0.0001290
 937.5 0.0001240
 940.0 0.0001250
 942.5 0.0001240
 945.0 0.0001210
 947.5 0.0001210
 950.0 0.0001110
 952.5 0.0001100
 955.0 0.0001060
 957.5 0.0001040
 960.0 0.0001090
 962.5 0.0001120
 965.0 0.0001110
 967.5 0.0001110
 970.0 0.0001120
 972.5 0.0001150
 975.0 0.0001120
 977.5 0.0001110
 980.0 0.0001140
 982.5 0.0001130
 985.0 0.0001100
 987.5 0.0001120
 990.0 0.0001100
 992.5 0.0001110
 995.0 0.0001100
 997.5 0.0001080
1000.0 0.0001030
1002.5 0.0000970
1005.0 0.0000940
1007.5 0.0000950
1010.0 0.0000980
1012.5 0.0001040
1015.0 0.0001050
1017.5 0.0001030
1020.0 0.0001040
1022.5 0.0001020
1025.0 0.0001010
1027.5 0.0001020
1030.0 0.0001000
1032.5 0.0001010
1035.0 0.0001000
1037.5 0.0000980
1040.0 0.0000990
1042.5 0.0000990
1045.0 0.0000960
1047.5 0.0000930
1050.0 0.0000950
1052.5 0.0000930
1055.0 0.0000940
1057.5 0.0000910
1060.0 0.0000940
1062.5 0.0000960
1065.0 0.0000910
1067.5 0.0000910
1070.0 0.0000910
1072.5 0.0000890
1075.0 0.0000890
1077.5 0.0000880
1080.0 0.0000860

# nm  Flux(W/m2/m) for star HR 7371 from file: table6.dat
 320.0 0.0003540
 322.5 0.0003630
 325.0 0.0003740
 327.5 0.0003820
 330.0 0.0004040
 332.5 0.0004010
 335.0 0.0003850
 337.5 0.0003820
 340.0 0.0003890
 342.5 0.0003920
 345.0 0.0003960
 347.5 0.0003970
 350.0 0.0003970
 352.5 0.0003950
 355.0 0.0003850
 357.5 0.0003870
 360.0 0.0003910
 362.5 0.0004010
 365.0 0.0004070
 367.5 0.0004100
 370.0 0.0004160
 372.5 0.0004440
 375.0 0.0005040
 377.5 0.0005920
 380.0 0.0006750
 382.5 0.0007260
 385.0 0.0008390
 387.5 0.0008220
 390.0 0.0008770
 392.5 0.0009840
 395.0 0.0008710
 397.5 0.0008240
 400.0 0.0009800
 402.5 0.0010910
 405.0 0.0010940
 407.5 0.0009310
 410.0 0.0007710
 412.5 0.0008750
 415.0 0.0009880
 417.5 0.0010120
 420.0 0.0010140
 422.5 0.0010110
 425.0 0.0009930
 427.5 0.0009690
 430.0 0.0009040
 432.5 0.0007410
 435.0 0.0007000
 437.5 0.0008260
 440.0 0.0008950
 442.5 0.0009110
 445.0 0.0009090
 447.5 0.0008930
 450.0 0.0008760
 452.5 0.0008610
 455.0 0.0008470
 457.5 0.0008360
 460.0 0.0008250
 462.5 0.0008240
 465.0 0.0008140
 467.5 0.0008070
 470.0 0.0007980
 472.5 0.0007810
 475.0 0.0007660
 477.5 0.0007570
 480.0 0.0007500
 482.5 0.0006800
 485.0 0.0005460
 487.5 0.0005430
 490.0 0.0006290
 492.5 0.0006700
 495.0 0.0006770
 497.5 0.0006700
 500.0 0.0006640
 502.5 0.0006590
 505.0 0.0006490
 507.5 0.0006360
 510.0 0.0006360
 512.5 0.0006250
 515.0 0.0006120
 517.5 0.0005960
 520.0 0.0005890
 522.5 0.0005880
 525.0 0.0005860
 527.5 0.0005780
 530.0 0.0005750
 532.5 0.0005700
 535.0 0.0005620
 537.5 0.0005580
 540.0 0.0005500
 542.5 0.0005490
 545.0 0.0005460
 547.5 0.0005360
 550.0 0.0005280
 552.5 0.0005190
 555.0 0.0005150
 557.5 0.0005110
 560.0 0.0005040
 562.5 0.0004990
 565.0 0.0004870
 567.5 0.0004750
 570.0 0.0004680
 572.5 0.0004680
 575.0 0.0004600
 577.5 0.0004520
 580.0 0.0004500
 582.5 0.0004460
 585.0 0.0004430
 587.5 0.0004370
 590.0 0.0004270
 592.5 0.0004220
 595.0 0.0004210
 597.5 0.0004180
 600.0 0.0004130
 602.5 0.0004100
 605.0 0.0004060
 607.5 0.0004000
 610.0 0.0003910
 612.5 0.0003880
 615.0 0.0003860
 617.5 0.0003840
 620.0 0.0003810
 622.5 0.0003790
 625.0 0.0003780
 627.5 0.0003730
 630.0 0.0003630
 632.5 0.0003580
 635.0 0.0003500
 637.5 0.0003470
 640.0 0.0003410
 642.5 0.0003370
 645.0 0.0003350
 647.5 0.0003350
 650.0 0.0003270
 652.5 0.0002980
 655.0 0.0002570
 657.5 0.0002560
 660.0 0.0002870
 662.5 0.0003030
 665.0 0.0003100
 667.5 0.0003090
 670.0 0.0003030
 672.5 0.0002990
 675.0 0.0002970
 677.5 0.0002960
 680.0 0.0002930
 682.5 0.0002910
 685.0 0.0002850
 687.5 0.0002720
 690.0 0.0002730
 692.5 0.0002720
 695.0 0.0002690
 697.5 0.0002760
 700.0 0.0002710
 702.5 0.0002540
 705.0 0.0002500
 707.5 0.0002520
 710.0 0.0002500
 712.5 0.0002460
 715.0 0.0002410
 717.5 0.0002320
 720.0 0.0002230
 722.5 0.0002290
 725.0 0.0002340
 727.5 0.0002230
 730.0 0.0002190
 732.5 0.0002200
 735.0 0.0002130

